0,1,2,3,4,5,6,7,8,9,10,11,12,13,14,15,16,17,18,19,20,21,22,23,24,25,26,27,28,29,30,31,32,33,34,35,36,37,38,39,40,41,42,43,44,45,46,47,48,49,50,51,52,53,54,55,56,57,58,59,60,61,62,63,64,65,66,67,68,69,70,71,72,73,74,75,76,77,78,79,80,81,82,83,84,85,86,87,88,89,90,91,92,93,94,95,96,97,98,99,100,101,102,103,104,105,106,107,108,109,110,111,112,113,114,115,116,117,118,119,120,121,122,123,124,125,126,127,128,129,130,131,132,133,134,135,136,137,138,139,140
1,1.1078,-2.57,-1.5598,-2.2617,-1.9305,-2.0806,-1.9017,-1.5873,-1.5189,-1.1919,-1.1368,-0.61155,-0.40434000000000003,-0.7217399999999999,-0.81611,-0.82194,-0.54895,-0.5488,-0.93885,-1.1062,-0.5704,-0.79177,-0.71583,-0.73045,-0.8511299999999999,-0.54067,-0.74149,-0.60897,-0.72496,-0.80462,-0.8377399999999999,-0.95868,-0.49504,-0.61778,-0.5817100000000001,-0.75243,-0.4566,-0.58054,-0.65173,-0.32442,-0.6318600000000001,-0.44196,-0.39555999999999997,-0.44051999999999997,-0.50135,-0.39261999999999997,-0.33059,-0.54755,-0.26768000000000003,-0.35591999999999996,-0.23045,-0.40624,-0.54493,-0.37451999999999996,-0.42346999999999996,-0.43758,-0.5433899999999999,-0.42388000000000003,-0.44878,-0.53132,-0.34405,-0.19785999999999998,-0.33568000000000003,-0.34883000000000003,-0.48506000000000005,-0.45679,-0.13423,-0.29566,-0.41315,-0.14826,-0.32639,-0.32904,-0.1993,-0.18681,-0.11649000000000001,0.0918,-0.033564,0.070424,0.071297,-0.015062,-0.12011,0.14881,-0.016253,0.09849,0.042026999999999995,0.09971100000000001,0.31359000000000004,0.042875,-0.058341,0.17924,0.014195,0.10119,0.13451,0.12157000000000001,0.56868,0.74929,1.1572,1.4338,1.6037,1.9068,2.2101,2.7041,2.7161,2.9402,2.4364,2.3095,2.1296,1.7885,1.3205,1.1417,0.83991,0.6431399999999999,0.37703000000000003,0.0981,0.29246,0.41686000000000006,0.37976,0.058563,0.10438,0.17052,-0.017929,0.06726499999999999,0.34314,0.18662,0.38256,0.36361,0.3259,0.60873,0.67525,1.3675,2.0918,2.0099,2.0881,1.381,0.73766,0.27355999999999997,0.52118,0.13813,1.6724,0.47479
2,-1.1527,-1.8172,-2.1011,-2.6078,-2.9001,-3.0832,-2.8916,-2.6151,-2.0677,-1.4338,-1.057,-1.0675,-0.9365,-0.58608,-0.34531,-0.27489,-0.24694000000000002,-0.203,-0.16785999999999998,-0.19139,-0.16125,-0.16079000000000002,-0.25626,-0.17735,-0.09437999999999999,-0.14207,-0.10595999999999998,-0.0026577,0.014609,0.045802999999999996,-0.016513,-0.015609999999999999,0.074768,0.060596000000000004,0.09917000000000001,0.09528099999999999,0.12558,0.1363,0.15092,0.25791,0.17719000000000001,0.14454,0.21996999999999997,0.15627,0.15886,0.18123,0.16471,0.18119000000000002,0.22541999999999998,0.29606,0.30415,0.32400999999999996,0.34404,0.34465,0.39786,0.43167,0.44605,0.46206,0.49526000000000003,0.49688000000000004,0.47011000000000003,0.54952,0.55766,0.54392,0.54303,0.56791,0.6037100000000001,0.60285,0.6374,0.63284,0.6672600000000001,0.64167,0.57636,0.63008,0.58919,0.55757,0.55305,0.52268,0.52956,0.5376,0.60936,0.63161,0.5825100000000001,0.5735899999999999,0.61068,0.53156,0.5816100000000001,0.55789,0.51545,0.57694,0.50189,0.5049399999999999,0.52858,0.56638,0.66472,0.65418,0.65018,0.64354,0.69429,0.7145,0.67248,0.6939,0.67684,0.66964,0.68685,0.7366,0.81945,0.80223,0.75144,0.79664,0.84385,0.77705,0.73145,0.77308,0.80688,0.6920000000000001,0.59995,0.65128,0.5122800000000001,0.46635,0.5211399999999999,0.63973,0.66842,0.43563,0.28013000000000005,0.17967,0.064604,0.13052,0.25354,0.24070999999999998,0.040022,-0.35034,-0.89404,-1.5782,-2.5192,-3.1592,-3.7062,-3.2883,-2.4864,-1.1743
2,0.19050999999999998,-0.10231,-0.5524100000000001,-1.0644,-1.3026,-1.5219,-1.805,-2.0562,-2.0849,-1.8392,-1.5141,-1.0974,-0.67648,-0.44575,-0.35644000000000003,-0.266,-0.064551,0.1978,0.31178,0.23399999999999999,0.16172999999999998,0.21277,0.28041,0.32022,0.35531999999999997,0.32921,0.29208,0.28448,0.27699999999999997,0.34785,0.43501000000000006,0.3908,0.32611999999999997,0.35264,0.36730999999999997,0.34805,0.36699,0.41168000000000005,0.41435,0.34167,0.33483,0.41426,0.4235,0.4334,0.46252,0.41700000000000004,0.41845,0.46646000000000004,0.40323000000000003,0.35251,0.39068,0.37438,0.38277,0.45611999999999997,0.47262,0.46107,0.45466000000000006,0.43416000000000005,0.39897,0.39036,0.43275,0.45323,0.44483999999999996,0.46137,0.47463,0.46381000000000006,0.45726999999999995,0.44288,0.45588,0.52374,0.54355,0.5207,0.52873,0.5605399999999999,0.5704,0.49461000000000005,0.46762,0.56172,0.59978,0.5886399999999999,0.5948899999999999,0.56423,0.55917,0.60355,0.59796,0.60047,0.62203,0.58614,0.60033,0.6158600000000001,0.54762,0.52289,0.56296,0.63115,0.66233,0.64835,0.65281,0.61998,0.59217,0.62457,0.62552,0.61355,0.62843,0.59488,0.56707,0.5779,0.5267,0.53203,0.5978600000000001,0.5743699999999999,0.56096,0.57322,0.58627,0.56971,0.43651999999999996,0.34051,0.35054,0.39984000000000003,0.43676000000000004,0.3844,0.32324,0.22203,0.046073,-0.1746,-0.47173000000000004,-0.55838,-0.51355,-0.6867800000000001,-0.91102,-1.1674,-1.5709,-1.9995,-2.4942,-3.0556,-3.5068,-4.0068,-4.0678,-3.363,-2.6233,-1.0954
2,-0.15724000000000002,-1.0487,-1.6980000000000002,-2.332,-2.5897,-2.5744,-2.4898,-2.3576,-2.1659,-1.7992,-1.2526,-0.71411,-0.43366000000000005,-0.40437,-0.31067,0.0010898,0.32189,0.46147,0.46024,0.42621000000000003,0.45088999999999996,0.51763,0.51874,0.50945,0.50617,0.44868,0.43609,0.4886,0.5246,0.54623,0.5148,0.45466999999999996,0.46931000000000006,0.49663,0.46406000000000003,0.48781,0.5246,0.48078000000000004,0.47162,0.45707,0.41403,0.44545,0.42518,0.36794,0.41403,0.44333999999999996,0.41088,0.42531,0.43246,0.37575,0.35151,0.35733000000000004,0.30346,0.24993,0.2721,0.31163,0.26661,0.19562000000000002,0.22604000000000002,0.27742,0.26661,0.25342,0.23143000000000002,0.20873000000000003,0.22975,0.24791,0.25816999999999996,0.30111,0.30346,0.25322,0.28055,0.36359,0.35875,0.36635,0.46243,0.4463,0.3956,0.5282899999999999,0.6271399999999999,0.5778,0.56145,0.58991,0.6221399999999999,0.66877,0.67202,0.6269100000000001,0.62784,0.69671,0.7088800000000001,0.6260899999999999,0.57606,0.62016,0.67202,0.67614,0.66872,0.67706,0.69045,0.6713600000000001,0.62061,0.63162,0.69045,0.67564,0.61422,0.60209,0.6351600000000001,0.6569,0.6419199999999999,0.63726,0.6351600000000001,0.60782,0.58182,0.5128,0.41403,0.38188,0.3624,0.33728,0.35875,0.39591,0.36299000000000003,0.21228000000000002,0.11918,0.11356,-0.0059556,-0.022287,0.082326,-0.073509,-0.37167,-0.68286,-1.2261,-1.8398,-2.2403,-2.5631,-3.0873,-3.5663,-3.5528,-3.1237,-2.258,-1.3006,-0.78261,0.12208
2,0.8704,-0.10865,-0.54251,-1.3814,-2.2296,-2.7252,-2.9053,-2.6898,-2.1319999999999997,-1.5509,-1.0601,-0.7477600000000001,-0.73287,-0.6996600000000001,-0.41212,0.0016774000000000001,0.37706,0.50161,0.41148,0.40608,0.50843,0.5765899999999999,0.56435,0.44416000000000005,0.39235,0.41191000000000005,0.36565,0.41141000000000005,0.43906999999999996,0.44802,0.46016999999999997,0.33411,0.36855,0.46857,0.38356999999999997,0.29125,0.2456,0.28872,0.38124,0.34059,0.21886,0.17182999999999998,0.18664,0.19968,0.15549000000000002,0.098202,0.11873,0.09983,0.009271600000000001,0.018078999999999998,0.074071,0.041476,0.0048336,0.0098721,0.035175,0.025809,-0.08648099999999999,-0.16789,-0.14743,-0.15352000000000002,-0.2879,-0.3917,-0.29109,-0.22723000000000002,-0.26909,-0.23963,-0.19863,-0.14065999999999998,-0.04843,-0.023716,-0.070716,-0.047258,0.053158000000000004,0.011651,-0.0021963,0.1706,0.2836,0.29281999999999997,0.23934,0.27004,0.41191000000000005,0.47252,0.56538,0.67352,0.67498,0.67735,0.66461,0.64768,0.7264,0.7381,0.65322,0.69924,0.78983,0.79305,0.77071,0.77388,0.8301799999999999,0.88794,0.8862899999999999,0.8368899999999999,0.8704,0.9811700000000001,0.9616,0.9073,1.0017,1.0876,1.0214,0.9265,0.9495,1.0298,0.96693,0.8820399999999999,1.0083,1.0531,0.8663299999999999,0.70148,0.61541,0.64213,0.75269,0.65098,0.38778,0.19473,0.029332999999999998,-0.051944000000000004,-0.22389,-0.33616,-0.087426,-0.15155,-0.6436,-1.0518,-1.4462,-2.0075,-2.6636,-3.222,-3.6006,-3.7387,-3.0729,-1.6729,-0.50553,1.0442
2,-0.32481,-1.0698,-1.4925,-2.3168,-2.5993,-2.4786,-2.214,-1.7636,-1.3007,-0.79889,-0.47275,-0.40104,-0.30193000000000003,-0.09350800000000001,0.22774,0.52481,0.62029,0.5955,0.53606,0.49387,0.51618,0.49601999999999996,0.47915,0.5303399999999999,0.55277,0.56853,0.5736100000000001,0.55284,0.60631,0.63722,0.54419,0.4612,0.45802,0.48541999999999996,0.49356000000000005,0.46399999999999997,0.45698,0.51532,0.537,0.46612,0.41026999999999997,0.41563999999999995,0.41373000000000004,0.41958999999999996,0.4407,0.3767,0.27921,0.26891,0.26056999999999997,0.25065,0.32881,0.36756,0.30371,0.22844,0.1532,0.10092000000000001,0.11285999999999999,0.10918,0.046693,0.023865,0.075525,0.07509,0.001864,-0.0065361,0.050483,0.08308099999999999,0.081775,0.05341799999999999,0.066492,0.14849,0.17772000000000002,0.16741,0.18637,0.17737999999999998,0.17312,0.25345,0.32703000000000004,0.34006,0.37998000000000004,0.44251999999999997,0.50126,0.56174,0.52723,0.47373999999999994,0.53592,0.57963,0.57996,0.61702,0.66352,0.6983199999999999,0.6603100000000001,0.6338,0.72911,0.76454,0.7390100000000001,0.7598,0.73324,0.7347199999999999,0.8103100000000001,0.8275100000000001,0.7936,0.73356,0.69899,0.73298,0.7450100000000001,0.7814399999999999,0.84111,0.8545,0.8804299999999999,0.80788,0.66596,0.6201800000000001,0.48239,0.34156,0.40054,0.41225,0.34398,0.27976,0.14301,0.039616000000000005,-0.026213,-0.16535999999999998,-0.26942,-0.29575,-0.38758000000000004,-0.61764,-0.94378,-1.3567,-1.8281,-2.3279,-2.792,-3.1210000000000004,-3.4739,-3.7275,-3.478,-2.815,-1.7427,-0.6213,0.010265,0.9192
2,-0.67156,-1.2131,-1.3162,-1.7497,-1.8924,-2.1556,-2.2974,-2.1035,-1.8567,-1.5079,-1.1343,-0.73385,-0.44176000000000004,-0.36455,-0.29034,-0.18247,0.0085884,0.27410999999999996,0.38653000000000004,0.37842,0.39849,0.41698,0.41773000000000005,0.41718,0.41655,0.39757,0.38409,0.40019,0.39236,0.36645,0.36827,0.39000999999999997,0.41381,0.38665,0.33860999999999997,0.35922,0.37446999999999997,0.34091,0.32318,0.35643,0.39765,0.36053,0.32289,0.33999,0.30222,0.2734,0.31701999999999997,0.31215,0.2753,0.29408,0.30919,0.32198000000000004,0.33725,0.27931999999999996,0.27313000000000004,0.30684,0.25592,0.25292,0.24875999999999998,0.19564,0.22175,0.24725,0.24431999999999998,0.22424000000000002,0.22376,0.29638000000000003,0.28873000000000004,0.26613000000000003,0.32158000000000003,0.30516,0.30405,0.37806999999999996,0.36734,0.3226,0.34952,0.37744,0.38732,0.41265,0.43045,0.475,0.5122,0.50834,0.5394399999999999,0.57185,0.59495,0.6037,0.56166,0.58486,0.6474,0.59995,0.53025,0.53884,0.5651,0.57201,0.5735600000000001,0.55512,0.53594,0.56377,0.58805,0.57314,0.57786,0.56507,0.55474,0.57121,0.51089,0.5111,0.5715100000000001,0.53241,0.5545800000000001,0.5843,0.5020600000000001,0.48743000000000003,0.50113,0.45441000000000004,0.42891999999999997,0.3699,0.25366,0.25251,0.36821,0.43138999999999994,0.4016,0.31074,0.22594,0.18256,0.14135,0.20838,0.50783,0.76815,0.70239,0.36516,-0.27101,-0.95399,-1.548,-2.2871,-3.0581,-4.0355,-4.3648,-3.9126,-3.8005,-1.7009999999999998
4,0.48905,-0.46563000000000004,-1.4307,-1.9182,-2.1664,-2.1363,-2.044,-2.0091,-1.6585,-1.093,-0.5621,-0.28698,-0.14907,-0.030282999999999997,0.21072,0.47781999999999997,0.63927,0.63469,0.59811,0.5925699999999999,0.53969,0.54537,0.5614899999999999,0.58181,0.58655,0.6350899999999999,0.5394399999999999,0.53664,0.57724,0.50961,0.5059100000000001,0.49007,0.5069,0.43868,0.44132,0.48978,0.4691,0.4216,0.38114000000000003,0.38339,0.37061,0.33341,0.2581,0.21366999999999997,0.28348,0.26184,0.22205,0.18605,0.19725,0.25124,0.207,0.17447000000000001,0.17836,0.21979,0.26864,0.23371,0.25864000000000004,0.29571,0.31190999999999997,0.23248000000000002,0.24631999999999998,0.31681,0.31329,0.41431,0.4329,0.48445,0.53759,0.44643999999999995,0.5433399999999999,0.49877,0.42191999999999996,0.50105,0.47608,0.47178000000000003,0.44885,0.47338,0.52558,0.49646999999999997,0.46066,0.44385,0.46933,0.40307,0.36083000000000004,0.37701,0.36430999999999997,0.39732,0.34125,0.37135,0.40838,0.34207,0.39995,0.43206000000000006,0.32209,0.32844,0.39098,0.39831,0.39495,0.34242,0.35223000000000004,0.42785,0.42267,0.42833000000000004,0.48998,0.50262,0.45527,0.48967,0.49935,0.47466,0.57899,0.5405300000000001,0.47215,0.47498,0.45333999999999997,0.41002,0.39971999999999996,0.38329,0.3019,0.21939,0.11598,-0.0016802,-0.033939,0.05166900000000001,0.058171,-0.016081,-0.07068200000000001,-0.15524000000000002,-0.21946,-0.19664,-0.15068,-0.19378,-0.39071999999999996,-0.75495,-1.3531,-1.8928,-2.4885,-3.1037,-4.327,-4.459,-4.5576,-3.2263
2,1.3862,1.5397,1.2763,0.70786,0.015371000000000001,-0.6727,-0.89355,-1.2242,-1.6276,-1.7690000000000001,-1.5547,-1.0874,-0.67292,-0.39663000000000004,-0.27891,-0.30632,-0.14631,0.23823000000000003,0.52686,0.55098,0.50961,0.53163,0.54169,0.53943,0.50505,0.46288,0.47128000000000003,0.48601000000000005,0.48117,0.50671,0.44236000000000003,0.4201,0.48736999999999997,0.36125,0.36401,0.3442,0.31249,0.42202,0.39084,0.35866,0.30767,0.30046999999999996,0.34902,0.30682,0.27921999999999997,0.29858,0.22843000000000002,0.19519,0.23972,0.20455,0.21515,0.18495,0.099327,0.15457,0.15203,0.078289,0.094432,0.066052,0.0091371,0.034213,0.028877999999999997,0.016891999999999997,-0.006218100000000001,-0.030032999999999997,0.047947000000000004,0.03258,0.025356999999999998,0.02246,-0.031023000000000002,0.0012869000000000001,-0.004627399999999999,0.025769999999999998,0.078148,0.065911,0.12337000000000001,0.19584000000000001,0.16906,0.2084,0.29661,0.28312,0.30788000000000004,0.37968,0.31611,0.36955,0.52032,0.47257,0.47408999999999996,0.51378,0.44648000000000004,0.53923,0.5704899999999999,0.5475300000000001,0.5781,0.54056,0.63172,0.65088,0.63576,0.63049,0.58219,0.5882,0.62981,0.68116,0.65027,0.61043,0.6686300000000001,0.67267,0.66433,0.6504800000000001,0.62252,0.6605300000000001,0.60946,0.6484800000000001,0.80219,0.7444,0.67506,0.7076600000000001,0.6996899999999999,0.64613,0.53432,0.46092,0.25254,0.23340999999999998,0.24383000000000002,-0.018604,-0.19655999999999998,-0.42578,-0.6424300000000001,-0.8782200000000001,-1.1292,-1.1928,-1.3975,-1.8668,-2.2307,-2.6210000000000004,-3.072,-3.2556,-3.9154,-3.8916,-4.4475,-2.7805
1,-1.3623,-3.353,-3.9757,-4.2282,-3.7997,-3.2181,-2.0493,-1.5297,-1.2975,-0.8305899999999999,-0.42436999999999997,-0.47203,-0.51517,-0.40259,-0.43983999999999995,-0.40805,-0.34323000000000004,-0.38626,-0.4486,-0.44478999999999996,-0.46137,-0.35766,-0.45115,-0.45308000000000004,-0.41228000000000004,-0.45106999999999997,-0.39036,-0.46498,-0.45665,-0.61793,-0.62551,-0.59844,-0.67673,-0.6602100000000001,-0.65055,-0.62649,-0.57631,-0.61395,-0.5401600000000001,-0.47888000000000003,-0.48626,-0.43573999999999996,-0.40404,-0.29283000000000003,-0.17228,-0.055059000000000004,-0.039811,-0.021251,0.021226,0.032142000000000004,0.0055193,0.078737,0.057119,-0.011384,0.062649,0.018703,0.06669,0.036431,0.067354,0.11525999999999999,0.04202,0.12611,0.031845,-0.0050344,0.25915,0.19145,0.28883000000000003,0.20886,0.27988,0.28162,0.30407,0.36857,0.36853,0.48425,0.45195,0.53652,0.44951,0.5089100000000001,0.5979,0.6580199999999999,0.6177600000000001,0.6231300000000001,0.6129100000000001,0.56066,0.56296,0.55308,0.50083,0.53918,0.41686000000000006,0.5049600000000001,0.48995,0.51286,0.55114,0.60618,0.71443,0.84236,0.99379,1.1099,1.1483,1.3754,1.611,1.7431,1.7895,1.6546,1.5758,1.4344,1.3749,1.0634,0.86959,0.58587,0.26028,0.13745,0.034019,-0.019213,0.026099,-0.078532,-0.065535,-6.0686e-05,-0.00070388,-0.10945,-0.082694,-0.07276200000000001,-0.025459,0.018728,0.0017722999999999999,0.054476,0.010279,0.23725,0.76055,1.0643,1.1205,1.3098,1.4682,1.2678,0.87241,0.63855,0.91927,0.71615,-0.35122,-2.2347
1,-1.3132,-1.9629,-0.84626,-1.4006,-1.3682,-1.626,-1.3468,-0.9707,-0.2991,-0.015791,0.2876,0.44026000000000004,0.5140399999999999,0.80094,0.87092,0.9214,1.0111,1.0452,1.1833,1.2097,1.3116,1.3761,1.3939,1.3325,1.5413,1.5794,1.5162,1.5829,1.5381,1.6238,1.6252,1.5421,1.5419999999999998,1.5073,1.4092,1.295,1.1165,1.0592,1.0625,0.9377700000000001,0.66972,0.50058,0.50105,0.47631,0.46703,0.46638,0.3676,0.40085,0.39111999999999997,0.48144,0.546,0.45298999999999995,0.48544,0.5009100000000001,0.39955999999999997,0.40104,0.47223000000000004,0.42086999999999997,0.35209,0.40504,0.36221,0.19938,0.24458000000000002,0.12712,0.15832000000000002,0.17078,0.22411999999999999,0.14767,0.077335,0.083087,0.12218,0.15703,0.12523,0.11804,0.066737,-0.00072671,-0.0037091,-0.11377999999999999,0.0036682999999999998,-0.016849,0.043135,0.0076624,-0.023449,-0.043156,-0.073778,-0.11632999999999999,-0.10319,-0.1167,-0.16598,-0.2305,-0.27657,-0.19885,-0.25443000000000005,-0.28520999999999996,-0.23016999999999999,-0.19552999999999998,-0.29784,-0.31882,-0.35076,-0.37273,-0.3613,-0.41188,-0.35186,-0.36032,-0.37256999999999996,-0.29930999999999996,-0.19609000000000001,-0.076185,0.19939,0.45702,0.6905899999999999,0.95616,0.9210200000000001,0.85387,0.6793600000000001,0.34335,0.039061,-0.2358,-0.69348,-1.1578,-1.3787,-1.6036,-1.5251,-1.4712,-1.5117,-1.6084,-1.6472,-1.6966,-1.7331,-1.6869999999999998,-1.7418,-1.479,-0.6913,-0.44633,-0.78761,-1.78,-2.4583,-3.0575,-2.4052,-2.7489
2,2.17,1.5962,0.36876,-1.0972,-2.1552,-2.7353,-2.7715,-2.4763,-2.3484,-2.1675,-1.6766,-1.1408,-0.70645,-0.53901,-0.49513,-0.18763,0.16517,0.3374,0.38328,0.38627,0.38509,0.41643,0.48935,0.44306999999999996,0.34412,0.37209000000000003,0.37445,0.37611,0.4328,0.37636,0.35764,0.36449000000000004,0.25628,0.33274000000000004,0.41098,0.31476,0.29775999999999997,0.2358,0.18516,0.2354,0.19768,0.17217000000000002,0.19317,0.13507,0.083409,0.065805,0.037843,-0.02444,-0.036717,-0.023925,-0.11060999999999999,-0.14659,-0.10669000000000001,-0.15598,-0.18875999999999998,-0.2071,-0.24556,-0.22233000000000003,-0.21452,-0.21404,-0.17548,-0.14374,-0.082453,-0.061477,-0.050176,0.010898999999999999,0.020406,0.03745,0.09261699999999999,0.12900999999999999,0.13751,0.26323,0.41243,0.47394,0.5103300000000001,0.48816000000000004,0.53404,0.5593199999999999,0.57029,0.6328,0.61141,0.63822,0.68583,0.635,0.7125100000000001,0.7754300000000001,0.6412,0.54733,0.6249899999999999,0.68561,0.5887899999999999,0.58672,0.5908800000000001,0.6239600000000001,0.65772,0.66956,0.785,0.72344,0.68299,0.71534,0.64565,0.69557,0.76915,0.7436699999999999,0.745,0.76197,0.8725299999999999,0.8765700000000001,0.90956,0.9747299999999999,0.8652799999999999,0.8886200000000001,0.89008,0.826,0.76213,0.60747,0.5233,0.53328,0.51067,0.46185,0.3272,0.13572,0.046928,-0.14005,-0.15980999999999998,0.044670999999999995,-0.13108,-0.47362,-0.9106,-1.474,-1.9925,-2.4198,-2.8117,-3.3541,-3.6048,-3.1694,-2.412,-1.0896,-0.33141,0.6170899999999999
2,0.87644,1.0385,0.84315,0.21381,-0.35719,-0.78867,-0.8690399999999999,-1.1585,-1.4502,-1.6099,-1.5205,-1.1996,-0.8839899999999999,-0.6211300000000001,-0.44821000000000005,-0.36069,-0.25981,0.05268200000000001,0.35224,0.49465,0.55075,0.47329,0.44818,0.48089,0.44706999999999997,0.44364,0.45174,0.41034,0.41568999999999995,0.45161,0.46747,0.48365,0.45015,0.40874,0.42055,0.45408999999999994,0.49188000000000004,0.46066999999999997,0.39941,0.41107,0.4058,0.35251,0.3773,0.4348,0.39008000000000004,0.31190999999999997,0.30565,0.29026,0.26266999999999996,0.30051,0.29312,0.2294,0.24550999999999998,0.26821,0.26150999999999996,0.23460999999999999,0.16612000000000002,0.16063,0.21838000000000002,0.27175,0.1849,0.12786,0.14672000000000002,0.14692,0.20636999999999997,0.14432999999999999,0.16334,0.21061,0.15175,0.17259000000000002,0.16612000000000002,0.16246,0.17622000000000002,0.14405,0.18205,0.26468,0.257,0.24291,0.29115,0.33504,0.35307,0.40774,0.40876999999999997,0.42723,0.47329,0.41773000000000005,0.48008,0.53068,0.50158,0.52232,0.55977,0.6268699999999999,0.61861,0.5595100000000001,0.55509,0.59264,0.64222,0.64246,0.6268699999999999,0.66125,0.6679,0.67511,0.68106,0.63134,0.65662,0.66527,0.63575,0.7247899999999999,0.6451899999999999,0.59306,0.66245,0.66977,0.7036600000000001,0.63821,0.63335,0.64974,0.60346,0.50646,0.33371999999999996,0.28131,0.30385999999999996,0.26749,0.18597,0.0021219,-0.26008000000000003,-0.43404,-0.6785899999999999,-0.97656,-1.0612,-1.2703,-1.5642,-1.9115,-2.3608,-2.8479,-3.3546,-3.7138,-4.3356,-3.9653,-3.8193,-2.0943
1,-1.5077,-3.5746,-4.478,-4.4083,-3.3212,-2.1052,-1.4809999999999999,-1.3014,-0.49823999999999996,-0.28693,-0.39003000000000004,-0.26384,-0.31801999999999997,-0.18592,-0.26979000000000003,-0.32225,-0.30925,-0.3911,-0.30326,-0.31929,-0.40792,-0.42158,-0.48138000000000003,-0.44752,-0.52485,-0.46912,-0.5826100000000001,-0.67904,-0.65205,-0.84685,-0.76668,-0.73515,-0.78846,-0.8512799999999999,-0.83701,-0.8435,-0.82704,-0.8780600000000001,-0.7550899999999999,-0.80992,-0.67942,-0.5834199999999999,-0.45742,-0.37778,-0.36063,-0.23173000000000002,-0.23684000000000002,-0.047711,-0.052632000000000005,-0.07435499999999999,-0.094409,-0.08268400000000001,0.0067543,-0.082925,-0.061499,0.021667,-0.040823000000000005,0.038088,0.041113,-0.10717,0.034700999999999996,0.085704,0.12186,0.088891,0.18567999999999998,0.22991,0.1832,0.28685,0.27956,0.41858999999999996,0.39461,0.42763999999999996,0.44483999999999996,0.4683,0.51542,0.6363,0.63325,0.64466,0.62755,0.53004,0.49282,0.47921,0.41336000000000006,0.47562,0.43649,0.40684000000000003,0.4433,0.31768,0.36132,0.361,0.24143,0.31811,0.32515,0.4783,0.47608,0.5320600000000001,0.79548,0.9451700000000001,1.1049,1.2907,1.4892,1.7553,1.9609,2.0424,1.9028,1.9029,1.7581,1.4258,1.2102,0.9284,0.64126,0.17553,-0.10690999999999999,-0.13204000000000002,-0.16584000000000002,-0.098571,-0.26602,-0.23729,-0.13769,-0.10067000000000001,-0.1075,-0.21036,-0.1301,-0.10762999999999999,-0.16115,-0.10132000000000001,-0.09525499999999999,-0.069172,0.15488,0.6956600000000001,1.2149,1.0891,0.9833700000000001,1.0141,0.95263,0.74933,1.0071,1.635,1.4934,-0.78313
1,0.78688,0.031394,-1.6558,-2.8177,-3.9601,-4.3523,-3.4391,-2.314,-1.8471,-1.1797,-0.1876,-0.19996,-0.25999,-0.23715,-0.22186,-0.27185,-0.2107,-0.17711,-0.28652,-0.27282,-0.31277,-0.31555,-0.34426999999999996,-0.56034,-0.42506000000000005,-0.5354899999999999,-0.55511,-0.56389,-0.60917,-0.70727,-0.70136,-0.82555,-0.91375,-0.9485399999999999,-0.91914,-1.153,-1.021,-1.1258,-1.1132,-1.0944,-1.0687,-0.99808,-0.84039,-0.7126399999999999,-0.6675300000000001,-0.5222899999999999,-0.36101,-0.29026,-0.18978,-0.08567999999999999,-0.037727,0.026931999999999998,0.058429999999999996,0.10642,0.2618,0.16095,0.21725999999999998,0.18488,0.16384,0.2616,0.32474000000000003,0.23215999999999998,0.22754000000000002,0.25187,0.3936,0.41522,0.45426000000000005,0.38719000000000003,0.48641999999999996,0.56924,0.5421600000000001,0.62927,0.6802600000000001,0.7833600000000001,0.70109,0.68726,0.72714,0.69895,0.65033,0.7246100000000001,0.58372,0.53905,0.56404,0.49883999999999995,0.51841,0.5475,0.45121999999999995,0.32384,0.46479,0.34409,0.33731,0.3456,0.26813000000000003,0.28886999999999996,0.30201999999999996,0.34348,0.27047,0.24906999999999999,0.32037,0.39052,0.59132,0.91709,1.0989,1.2467,1.4099,1.7202,2.0256,2.4019,2.224,2.0315,1.8468,1.6740000000000002,1.2123,0.70875,0.33455,-0.21891,-0.32758000000000004,-0.33476,-0.25523,-0.33938,-0.34948,-0.26831,-0.34201,-0.26932,-0.32278,-0.29672,-0.31369,-0.31699,-0.24836,-0.17625,-0.010433,0.64237,1.1683,1.0356,1.1895,1.0213,0.97383,0.11445,0.040713,0.39221999999999996
1,-0.42018999999999995,-2.2895,-3.2307,-3.7656,-3.7326,-3.5871,-2.8351,-1.8828,-1.6275,-1.3961,-0.8173699999999999,-0.60097,-0.5991,-0.5567300000000001,-0.56252,-0.48097,-0.51665,-0.47945,-0.46913999999999995,-0.5108600000000001,-0.49146999999999996,-0.56916,-0.5692,-0.55572,-0.5606899999999999,-0.6392399999999999,-0.67472,-0.65708,-0.69763,-0.71862,-0.68302,-0.79405,-0.75342,-0.76603,-0.73826,-0.7805,-0.7610100000000001,-0.69277,-0.67994,-0.71245,-0.60153,-0.5316,-0.46621999999999997,-0.37687,-0.32111,-0.27696,-0.23475,-0.20592,-0.18014000000000002,-0.061638,-0.10557000000000001,-0.14914000000000002,-0.065153,-0.086509,-0.094128,-0.09779199999999999,-0.037322,-0.06779,-0.055179,-0.053068,-0.0431,0.0047511,-0.027188999999999998,0.012098000000000001,0.15422,0.10892,0.10908,0.24848,0.27558,0.33624,0.29353,0.37009000000000003,0.39734,0.43709,0.46321,0.5268,0.50667,0.50917,0.4909,0.53236,0.47703,0.57115,0.52668,0.39535,0.4744,0.42694,0.4449,0.42348,0.39778,0.37748000000000004,0.42745,0.44498000000000004,0.52065,0.5304300000000001,0.69082,0.83324,0.91825,1.0752,1.1571,1.3129,1.6480000000000001,1.8194,1.9162,1.8361,1.797,1.6722,1.4913,1.3952,1.0805,0.85725,0.60844,0.22198,0.098965,0.094937,-0.018631,0.068928,0.084733,0.009735899999999999,0.048141,0.0045883,0.0093862,0.0018390999999999998,0.07135599999999999,0.042397000000000004,0.04665,0.074311,0.06642200000000001,0.19396,0.39098,0.82665,1.1275,1.1005,1.2692,1.3825,1.2892,1.0582,1.0289,1.1909999999999998,1.6219,0.26393
1,-1.4269999999999998,-4.1483,-4.5266,-4.3931,-3.3525,-2.1812,-1.645,-1.4089,-0.44111000000000006,-0.24529,-0.30574,-0.32315,-0.22091,-0.27865,-0.25573,-0.22558000000000003,-0.22391999999999998,-0.25071,-0.29998,-0.27295,-0.28633000000000003,-0.28276,-0.31589,-0.38356,-0.35353,-0.46665,-0.38523,-0.54351,-0.59002,-0.6669,-0.73757,-0.76122,-0.74621,-0.8700700000000001,-0.8477600000000001,-0.85965,-0.85413,-0.82385,-0.73944,-0.78501,-0.69448,-0.5533100000000001,-0.46798999999999996,-0.43378999999999995,-0.30512,-0.25895,-0.13125,-0.09579,0.023263,0.054323,0.09638300000000001,0.17068,0.075251,0.057391,0.1647,0.19494,0.20213,0.2195,0.21779,0.28636,0.34459,0.23390999999999998,0.29517,0.33787,0.40923000000000004,0.41972,0.5654100000000001,0.59067,0.6181,0.53673,0.57619,0.70745,0.7259,0.74103,0.69184,0.65938,0.62841,0.7682899999999999,0.66615,0.6166,0.53474,0.5745600000000001,0.62961,0.5260699999999999,0.44355,0.45958000000000004,0.47048,0.5128,0.50718,0.41346000000000005,0.41318999999999995,0.42761000000000005,0.32868,0.40213000000000004,0.32491,0.39857,0.36025,0.47107,0.67177,0.86239,1.1412,1.2275,1.3588,1.6218,1.7619,1.7431,1.6468,1.5499,1.4164,1.1678,0.9328700000000001,0.5585600000000001,0.22737,-0.10602,-0.1283,-0.22735999999999998,-0.30063,-0.24581999999999998,-0.25711,-0.2608,-0.23103,-0.24831999999999999,-0.29254,-0.22906999999999997,-0.1776,-0.22576999999999997,-0.24103000000000002,-0.12814,-0.09933,0.27071,0.8889799999999999,1.0661,0.9623200000000001,0.8667,0.9628700000000001,0.8709899999999999,0.8595200000000001,0.8662,0.7253,-2.2567
1,-0.77587,-3.4141,-4.0897,-4.0646,-4.034,-3.6645,-2.4579,-1.2955,-1.2498,-0.83788,-0.2569,-0.22376999999999997,-0.31944,-0.24578000000000003,-0.29114,-0.31240999999999997,-0.28363,-0.24818,-0.24672,-0.31294,-0.27233,-0.2838,-0.36983,-0.32725,-0.32803000000000004,-0.3559,-0.31206,-0.43861000000000006,-0.41395,-0.42673999999999995,-0.40047,-0.52518,-0.48744,-0.48895,-0.5294,-0.56711,-0.61573,-0.4567,-0.45863000000000004,-0.49073,-0.45092,-0.39284,-0.25425,-0.25761999999999996,-0.19182000000000002,-0.13785999999999998,-0.10703,-0.069024,-0.023093000000000002,-0.025411000000000003,0.046336,0.022994999999999998,-0.046548,-0.039305,-0.094578,-0.012034,-0.085145,-0.060454999999999995,0.021065,0.013212,0.055273,-0.0027854,0.069091,0.14215999999999998,0.095263,0.16341,0.18068,0.19202,0.20936999999999997,0.26571,0.31319,0.23154,0.28817,0.37111,0.38303000000000004,0.42408999999999997,0.37787,0.33521999999999996,0.46048999999999995,0.40769,0.27995,0.42586999999999997,0.43725,0.5183800000000001,0.42399,0.35165,0.35484,0.37694,0.28508,0.41116,0.38251999999999997,0.28238,0.4432,0.46151000000000003,0.61937,0.70373,0.93037,1.1644,1.1759,1.3012,1.5958,1.7844,1.7909,1.7107,1.6986,1.5589,1.3677,1.2238,0.951,0.61746,0.22432,-0.0018566,-0.12859,-0.19397,-0.008424899999999999,-0.058990999999999995,-0.10642,0.049976,-0.10216,-0.026576,-0.046325,-0.12089000000000001,-0.010478,-0.07914,-0.10539000000000001,-0.0063806,0.053028,0.19053,0.34287,0.8657799999999999,1.1419,1.3063,1.4654,1.3869999999999998,1.3207,0.8821700000000001,0.9662299999999999,1.0659,0.44011999999999996,-1.9803
1,0.08442999999999999,-3.1903,-4.6862,-4.5595,-4.088,-2.6189,-1.7606,-1.5930000000000002,-0.56912,-0.1304,-0.1737,-0.15454,-0.11002,-0.099079,-0.1275,-0.15564,-0.16613,-0.18039000000000002,-0.11864000000000001,-0.14853,-0.22085,-0.2133,-0.30025999999999997,-0.34071999999999997,-0.41812,-0.5113800000000001,-0.5130100000000001,-0.60834,-0.69275,-0.7370800000000001,-0.76918,-0.7127899999999999,-0.83425,-0.8132699999999999,-0.89117,-0.88461,-0.79474,-0.80278,-0.80424,-0.76484,-0.7205699999999999,-0.61615,-0.5287,-0.35801,-0.2946,-0.24713000000000002,-0.18559,-0.16121,-0.15045,-0.057264999999999996,-0.0071218,0.01818,0.045173000000000005,0.086901,0.025782999999999997,0.08290800000000001,0.067584,0.13455,0.25098000000000004,0.22404000000000002,0.21174,0.14528,0.24036999999999997,0.27145,0.19709000000000002,0.35853,0.45132,0.40618000000000004,0.54828,0.51869,0.5575600000000001,0.6162,0.55313,0.59117,0.6109,0.53364,0.51354,0.61563,0.47098,0.45232,0.42163999999999996,0.48208,0.37154,0.38605,0.39589,0.38188,0.32637,0.34629,0.22860999999999998,0.2734,0.32381,0.23135,0.24341,0.30025999999999997,0.2357,0.21689,0.26647,0.28661,0.55197,0.74366,1.121,1.2565,1.3506,1.5030000000000001,1.9051,1.9777,1.7311,1.68,1.4573,1.3045,1.1445,0.75397,0.33954,-0.11637,-0.29536999999999997,-0.24484,-0.32682,-0.21511999999999998,-0.34201,-0.41663999999999995,-0.27605999999999997,-0.26074,-0.23417,-0.21291999999999997,-0.19,-0.19854000000000002,-0.1423,-0.082819,-0.073202,0.0059627,0.46716,1.1523,1.2718,1.1908,1.1807,1.0582,0.9825799999999999,0.87377,1.6267,-0.020783000000000003
1,1.9354,-0.54876,-2.3434,-3.3786,-4.2434,-4.1082,-3.0448,-1.6656,-1.4282,-1.0201,-0.11959000000000002,0.19645,0.11235999999999999,0.1368,0.18311,0.11482,0.13971,0.064161,-0.076425,0.11965,0.047738,-0.088085,-0.16748,-0.08782899999999999,-0.22899,-0.19831,-0.21673,-0.29272,-0.37732,-0.45815,-0.58024,-0.59795,-0.55776,-0.6792699999999999,-0.7147600000000001,-0.65672,-0.74916,-0.74145,-0.77262,-0.79419,-0.62049,-0.5228,-0.38185,-0.42528999999999995,-0.46276999999999996,-0.29762,-0.14937,-0.089397,-0.067538,-0.035564,0.012313,0.007929,0.046252999999999996,-0.0015729000000000001,0.17067000000000002,0.14818,0.15327000000000002,0.13372,0.079182,0.23619,0.18735,0.19535,0.25764000000000004,0.19105,0.21328000000000003,0.23697,0.32188,0.30057,0.34675,0.38095,0.42678,0.54205,0.52228,0.32599,0.37182,0.39498,0.42673,0.42251000000000005,0.40811,0.48273,0.33924,0.251,0.31872,0.32999,0.43766000000000005,0.28029,0.36635999999999996,0.20082,0.25017,0.20605,0.23721,0.25328,0.11064,0.16059,0.1884,0.29655,0.6463399999999999,0.79986,1.0739,1.0876,1.2858,1.5006,1.8099,2.2429,2.1417,1.99,1.7838,1.7,1.46,1.1057,0.8661700000000001,0.15671,-0.37163,-0.51717,-0.57012,-0.7114199999999999,-0.64748,-0.8095399999999999,-0.75344,-0.76875,-0.7594,-0.75446,-0.68913,-0.74411,-0.7221,-0.77188,-0.71977,-0.70657,-0.56008,-0.16699,0.371,0.54842,0.93739,1.2249,1.2934,1.1837,1.0941,1.5881,1.8711,-1.2487
1,-1.1667,-2.8432,-3.8366,-4.1,-3.4182,-2.6191,-1.8435,-1.6626,-1.117,-0.58801,-0.61387,-0.54779,-0.56575,-0.60163,-0.53587,-0.56266,-0.49112,-0.48152,-0.55713,-0.54825,-0.62722,-0.6032,-0.5803,-0.64089,-0.69909,-0.6772100000000001,-0.74315,-0.81187,-0.8282200000000001,-0.83704,-0.83267,-0.9095,-1.0115,-0.9177200000000001,-0.9704,-0.9954299999999999,-1.0107,-0.9809,-0.96199,-0.8698100000000001,-0.79993,-0.6765899999999999,-0.61034,-0.5183,-0.46378,-0.31303000000000003,-0.27837,-0.23039,-0.15334,-0.14967,-0.13480999999999999,-0.14271,-0.12572,-0.12228,-0.17175,-0.043618000000000004,-0.065377,-0.085336,0.017496,0.0090442,0.040194,-0.0062525,0.032902999999999995,0.060758000000000006,0.035457999999999996,0.13321,0.11460999999999999,0.21559,0.19875,0.22929000000000002,0.36443000000000003,0.33232,0.36835999999999997,0.44643,0.45579,0.44811999999999996,0.4535,0.45251,0.40818000000000004,0.48477,0.46498999999999996,0.44018999999999997,0.47767,0.38565,0.41213,0.50667,0.43806000000000006,0.47741999999999996,0.53146,0.47551000000000004,0.41976,0.43165,0.53504,0.49162,0.47084,0.6139100000000001,0.86301,0.9947799999999999,1.0154,1.1439,1.3285,1.5622,1.7452,1.7867,1.6865,1.5875,1.5086,1.3421,1.1349,0.94485,0.77503,0.53083,0.26297,0.12793,0.11463,0.14767,0.16513,0.2204,0.17966,0.061808,0.24768,0.13901,0.07094199999999999,0.17861,0.20848000000000003,0.14149,0.10076,0.29131999999999997,0.60228,1.1613,1.4399,1.1829,1.3928,1.5930000000000002,1.5012,1.2548,0.9378,1.0021,1.4468,1.3034
1,0.087631,-1.7535,-3.3045,-4.7047,-4.6864,-3.6118,-2.2673,-1.5709,-1.4178,-0.50079,-0.22518000000000002,-0.30883,-0.21473000000000003,-0.21450999999999998,-0.22311999999999999,-0.26234,-0.21181999999999998,-0.2991,-0.25995999999999997,-0.31611,-0.25866999999999996,-0.28715,-0.36685999999999996,-0.30598000000000003,-0.41671,-0.4023,-0.38155,-0.5199,-0.52095,-0.59692,-0.6507,-0.6796399999999999,-0.75153,-0.72522,-0.8307,-0.8073199999999999,-0.84839,-0.74455,-0.69997,-0.75435,-0.62192,-0.53394,-0.3966,-0.22089,-0.17932,-0.0094803,-0.024018,0.041460000000000004,0.094493,0.083212,0.099031,0.045913999999999996,0.10952,0.16816,0.26347,0.1361,0.15884,0.089803,0.1466,0.19677,0.26898,0.23726,0.18636,0.24141999999999997,0.27843,0.38316,0.38958000000000004,0.39355,0.57739,0.58775,0.5818800000000001,0.54492,0.65789,0.60178,0.64273,0.69906,0.68011,0.6986399999999999,0.71618,0.6686300000000001,0.67183,0.57504,0.5292100000000001,0.5433399999999999,0.60328,0.55471,0.56362,0.48903,0.44695,0.45643,0.39325,0.44143999999999994,0.44738999999999995,0.27405999999999997,0.36461,0.40121999999999997,0.44788999999999995,0.54781,0.6420899999999999,0.78833,0.7498,0.82085,0.96416,1.0619,1.3409,1.1378,0.8640100000000001,0.68398,0.62842,0.50113,0.49128999999999995,0.46193999999999996,0.32981,0.12042,-0.14197,-0.19518,-0.10265,-0.076308,-0.11650999999999999,-0.19169,-0.23429,-0.16113,-0.14536,-0.21218,-0.13568,-0.13344,-0.17008,-0.035914,0.33224000000000004,1.0633,1.5758,1.709,2.1429,2.3935,1.9256,1.0276,0.57345,0.19297,-0.64868,-2.4411
1,1.9224,0.32033,-1.8033,-3.017,-4.0288,-3.9744,-2.7026,-1.7716,-1.7162,-0.88626,0.0081731,-0.28749,-0.23838,-0.23528000000000002,-0.25885,-0.23465,-0.25403000000000003,-0.35728000000000004,-0.24111,-0.38003000000000003,-0.46774,-0.39355,-0.44256999999999996,-0.4942,-0.45761,-0.52462,-0.6562,-0.68537,-0.70722,-0.76189,-0.80566,-0.8522299999999999,-0.93929,-0.96706,-0.9425399999999999,-1.3153,-1.0989,-1.1055,-1.1207,-1.1943,-1.0268,-0.94384,-0.8895299999999999,-0.81335,-0.73464,-0.58814,-0.44906,-0.45818000000000003,-0.25346,-0.23845999999999998,-0.11220999999999999,-0.11184000000000001,-0.091162,-0.0012851,-0.032293999999999996,-0.06604700000000001,0.064318,0.026191000000000002,0.043657999999999995,0.16821,0.10332999999999999,0.13713,0.24306,0.22578,0.21083000000000002,0.27314,0.31639,0.3401,0.3993,0.40584000000000003,0.5858,0.59601,0.61052,0.60339,0.60755,0.72133,0.73832,0.8325600000000001,0.6853,0.74549,0.6929,0.6926100000000001,0.55495,0.5622699999999999,0.6039399999999999,0.5495800000000001,0.44895,0.36911,0.34568000000000004,0.31978,0.43412,0.30267,0.3157,0.26631,0.3128,0.27967,0.21911,0.3177,0.26859,0.28978000000000004,0.3899,0.642,1.047,1.1609,1.2062,1.3306,1.7986,2.114,2.1068,2.0043,1.889,1.6457,1.4069999999999998,1.0712,0.75313,0.13024000000000002,-0.27186,-0.29884,-0.28909,-0.28899,-0.49996,-0.32184,-0.3552,-0.38058000000000003,-0.27959,-0.35157,-0.35631999999999997,-0.42431,-0.27578,-0.23369,-0.25677,-0.21625999999999998,0.28638,0.7653,0.9610299999999999,1.6640000000000001,1.8662,1.9617,1.1084,0.84024
1,-0.29716,-2.7666,-4.1022,-4.5897,-4.2194,-3.6504,-2.3005,-1.2939,-1.0657,-0.49051999999999996,0.050751,-0.076647,-0.09464700000000001,-0.15818,-0.06869199999999999,-0.14082999999999998,-0.069177,-0.13427999999999998,-0.059199,-0.13138,-0.18120999999999998,-0.21595999999999999,-0.21755,-0.25406,-0.33125,-0.30491999999999997,-0.27379000000000003,-0.34793,-0.38743,-0.40399999999999997,-0.42505,-0.5077,-0.58217,-0.53292,-0.6378699999999999,-0.65594,-0.54965,-0.6867300000000001,-0.58304,-0.63651,-0.62085,-0.46829,-0.42352,-0.3247,-0.26359,-0.12755999999999998,0.011175,0.024381,0.084773,0.059936,0.16447,0.16221,0.12599000000000002,0.14363,0.07825900000000001,0.17852,0.1266,0.17504,0.16946,0.2997,0.24249,0.29717,0.2384,0.24916,0.22551999999999997,0.26718000000000003,0.23663,0.25743,0.41651000000000005,0.42658,0.45903999999999995,0.4166,0.40913,0.39678,0.5572699999999999,0.53501,0.59008,0.5858399999999999,0.56813,0.55499,0.45756,0.4627,0.49946999999999997,0.45014,0.37201,0.42851999999999996,0.3046,0.24413,0.29407,0.20672,0.37246,0.3946,0.39445,0.40425,0.4599,0.67724,0.81142,0.8895299999999999,1.1304,1.2852,1.6524,1.8393,1.9485,1.9407,1.8161,1.7273,1.5512,1.2119,1.1334,0.74592,0.36093000000000003,-0.12852,-0.39421999999999996,-0.4366,-0.50648,-0.45515,-0.45787,-0.5453,-0.5061,-0.37653000000000003,-0.4578,-0.49546,-0.45869,-0.33281,-0.41033000000000003,-0.40652,-0.33723000000000003,-0.38648000000000005,-0.08258,0.22032,0.5949800000000001,0.58178,0.6844100000000001,0.91165,0.9794799999999999,1.0535,0.9747899999999999,1.1104,1.2882,-0.82339
1,-0.5333399999999999,-1.8557,-2.214,-3.1334,-3.4171,-3.0604,-2.2563,-1.7657,-1.6223,-1.1547,-0.86777,-0.9064700000000001,-0.87131,-0.87436,-0.88159,-0.9031399999999999,-0.8660700000000001,-0.86865,-0.84635,-0.84449,-0.8534799999999999,-0.8619600000000001,-0.8094399999999999,-0.8417,-0.8733700000000001,-0.8891600000000001,-0.9089700000000001,-0.86972,-0.8841200000000001,-0.90523,-0.9398,-0.9511700000000001,-0.9675,-0.9925,-1.0005,-0.95495,-0.94863,-0.9041100000000001,-0.89659,-0.81267,-0.7892399999999999,-0.7101,-0.66955,-0.6137600000000001,-0.59936,-0.5171899999999999,-0.4502,-0.39521999999999996,-0.38045,-0.39337,-0.35022,-0.34968,-0.30588000000000004,-0.28722,-0.2592,-0.28317,-0.26637,-0.26271,-0.16842000000000001,-0.19469,-0.12977,-0.12959,-0.10497999999999999,-0.064818,-0.053427999999999996,-0.013163999999999999,0.050629,0.077997,0.12775999999999998,0.16522,0.19038,0.2253,0.24943,0.31733,0.37778,0.38998,0.39844,0.41033000000000003,0.41015,0.43593999999999994,0.38914,0.42578,0.40888,0.4391,0.41708999999999996,0.44516000000000006,0.38428,0.45751000000000003,0.45442,0.45197,0.45223,0.47006000000000003,0.44818,0.49418,0.50965,0.51767,0.67689,0.78404,0.87424,0.9456600000000001,1.0249,1.0867,1.2528,1.3675,1.3228,1.3262,1.2184,1.1168,1.0481,0.9397399999999999,0.8778799999999999,0.81094,0.64423,0.60055,0.6087899999999999,0.59691,0.6210600000000001,0.63352,0.68134,0.64581,0.67875,0.67006,0.74092,0.78719,0.73983,0.79385,0.8200200000000001,0.9148700000000001,1.1019,1.4095,1.7048,1.7578,2.0140000000000002,2.0983,1.9152,1.5827,1.3322,1.2747,1.1994,0.31686
2,-0.71257,-1.6857,-1.9358,-2.589,-2.8898,-2.8858,-2.7109,-2.3456,-1.9286,-1.3804,-0.8193600000000001,-0.54877,-0.43699,-0.27386,-0.019806999999999998,0.30001,0.39089,0.41423999999999994,0.4918,0.42356000000000005,0.45692,0.5280600000000001,0.45983,0.41507,0.37222,0.40901,0.48978999999999995,0.49155,0.50856,0.50742,0.4819,0.44126000000000004,0.39042,0.43886000000000003,0.50317,0.47744,0.42913999999999997,0.41186999999999996,0.40431,0.38034,0.3975,0.4138,0.35874,0.37824,0.44427,0.38466999999999996,0.28302,0.25467,0.2876,0.31095,0.32627,0.3415,0.29391999999999996,0.26798,0.26554,0.21354,0.22493000000000002,0.24794000000000002,0.1667,0.12325,0.1487,0.12318,0.10672999999999999,0.1248,0.10870999999999999,0.11002999999999999,0.14165999999999998,0.17451,0.22375,0.22432,0.18129,0.19985999999999998,0.20397,0.19282,0.30894,0.39816999999999997,0.3883,0.40786,0.45121000000000006,0.5102899999999999,0.49896999999999997,0.49666000000000005,0.5710000000000001,0.53304,0.53378,0.60126,0.5556,0.57926,0.67387,0.65184,0.5433,0.4886,0.5415800000000001,0.60225,0.64391,0.63665,0.6131800000000001,0.71616,0.74548,0.6721600000000001,0.7066899999999999,0.73682,0.73264,0.64269,0.55213,0.65089,0.65961,0.6140399999999999,0.7067399999999999,0.72539,0.6815100000000001,0.67508,0.643,0.57526,0.50945,0.46046000000000004,0.41548999999999997,0.41403,0.45027,0.43363999999999997,0.3887,0.33145,0.22859000000000002,0.12469000000000001,0.12462000000000001,0.27773000000000003,0.29141,0.029143000000000002,-0.2536,-0.61875,-1.2462,-1.8306,-2.3379,-3.0104,-3.4438,-3.695,-3.3637,-2.3126,-1.8021,-0.33492
2,-0.96865,-2.0161,-2.4097,-2.964,-2.8148,-2.5449,-2.2068,-1.7872,-1.2153,-0.7812100000000001,-0.62122,-0.52215,-0.22376999999999997,0.1756,0.38204,0.39926,0.3129,0.36764,0.40619,0.35195,0.37238000000000004,0.30446999999999996,0.31363,0.33881999999999995,0.30317,0.32051999999999997,0.31122,0.29438000000000003,0.29299000000000003,0.29,0.25716999999999995,0.31009000000000003,0.34972,0.29179,0.31072,0.28259,0.2116,0.2328,0.18529,0.11194000000000001,0.13573,0.14019,0.11442999999999999,0.0584,0.045868,0.084731,0.050597,3.3741e-05,-0.018969,-0.038398,-0.08648600000000001,-0.0572,-0.049281,-0.07943,-0.0084772,0.0029145,0.011215000000000001,-0.002874,-0.077054,0.002592,0.076564,0.022149000000000002,0.062899,0.14287,0.16749,0.21100000000000002,0.26148000000000005,0.34646,0.45375,0.4965,0.48866000000000004,0.54387,0.59208,0.5475399999999999,0.56188,0.61547,0.5676899999999999,0.57162,0.65494,0.63821,0.5695899999999999,0.56534,0.57991,0.55534,0.6006600000000001,0.5914699999999999,0.52989,0.586,0.60948,0.61628,0.57807,0.56053,0.64885,0.64553,0.6088100000000001,0.62712,0.63357,0.68171,0.70709,0.69013,0.74708,0.77051,0.76945,0.83115,0.83694,0.80208,0.8321200000000001,0.8650200000000001,0.8656,0.8864200000000001,0.92416,0.87735,0.8506799999999999,0.8624799999999999,0.69643,0.51032,0.51345,0.59191,0.60187,0.5121899999999999,0.43154,0.34456,0.16935,0.18158,0.34979,0.34863,0.11660999999999999,-0.34365999999999997,-0.9540700000000001,-1.5846,-2.1321,-2.7669,-3.4126,-3.8647,-3.6813,-2.7321,-1.8395,-0.70345,-0.51174,-0.004718899999999999
1,0.70399,-1.6093,-3.7721,-4.3988,-4.9806,-4.3273,-2.5813,-1.3943,-1.2387,-0.47701000000000005,0.26478,0.27058000000000004,0.23055,0.20661999999999997,0.31334,0.26697,0.25356999999999996,0.17373,0.29505,0.17673,0.12633,0.128,0.11937,0.14007,0.11291,0.050098000000000004,-0.11101,-0.082037,-0.13317,-0.17315999999999998,-0.31761,-0.34157,-0.20756999999999998,-0.3338,-0.28755,-0.27576,-0.31621,-0.37365,-0.41521,-0.29922,-0.38974000000000003,-0.33333,-0.13777999999999999,-0.14007999999999998,-0.10847000000000001,0.009989299999999998,0.13294,0.15342999999999998,0.24275,0.20322,0.28817,0.31422,0.26281,0.40464,0.49307,0.43596999999999997,0.4449,0.45308000000000004,0.51432,0.5093300000000001,0.49971000000000004,0.4827,0.57905,0.60338,0.6269899999999999,0.7741600000000001,0.6206699999999999,0.74648,0.9036200000000001,0.7870199999999999,0.69057,0.7734300000000001,0.7994,0.73534,0.78342,0.8271,0.80775,0.78084,0.7551399999999999,0.7933100000000001,0.73549,0.73329,0.62416,0.6462399999999999,0.49806000000000006,0.44928999999999997,0.45248,0.49393000000000004,0.42741,0.39808000000000004,0.48371000000000003,0.34215999999999996,0.28131999999999996,0.29801,0.35183000000000003,0.21631999999999998,0.32849,0.36932,0.44543,0.684,0.9118700000000001,1.1451,1.1637,1.1864,1.4427,1.5441,1.3053,0.8226,0.56686,0.34914,0.44271000000000005,0.3916,0.11300999999999999,-0.36135,-0.65222,-0.8146,-0.9409700000000001,-0.8731200000000001,-0.7592300000000001,-0.9214200000000001,-0.9541,-0.8169,-1.0571,-1.1231,-1.0828,-1.0168,-1.0070000000000001,-1.1439,-1.0491,-1.0056,-0.56283,0.12399,0.06305,0.22508000000000003,0.13065,-0.063264,-0.034908999999999996,0.028877,0.98806,0.52728
1,0.8841600000000001,-1.9045,-3.7094,-4.622,-4.7367,-3.8256,-2.3118,-1.6205,-1.3062,-0.09854199999999999,0.10637,0.19837,0.19865,0.13762,0.020096,0.036199,0.15154,0.042447000000000006,0.026994,0.062738,-0.03011,-0.031729,0.00073088,-0.13689,-0.28036,-0.34588,-0.31884,-0.46299999999999997,-0.53049,-0.6291899999999999,-0.6340100000000001,-0.70038,-0.79359,-0.85126,-0.8323,-0.91666,-0.9268,-0.91895,-0.8436,-0.8173600000000001,-0.70515,-0.8204299999999999,-0.53608,-0.46936000000000005,-0.24316999999999997,-0.094262,-0.04063,0.064897,0.1407,0.087725,0.09918300000000001,0.26042,0.2187,0.29343,0.23895,0.3109,0.35165,0.42858,0.40265,0.39837,0.49033000000000004,0.42522,0.49116000000000004,0.50676,0.47181000000000006,0.5141100000000001,0.60831,0.6301399999999999,0.8078,0.66356,0.72511,0.9030600000000001,0.8243799999999999,0.9685,0.9121600000000001,0.9099799999999999,0.9218700000000001,0.8728799999999999,0.91204,0.8832200000000001,0.69053,0.81471,0.7071,0.72224,0.72226,0.6247199999999999,0.48372,0.59916,0.49037,0.48153999999999997,0.45701,0.41803999999999997,0.36694,0.27697,0.29741999999999996,0.28106,0.18315,0.26718000000000003,0.17115,0.38321,0.48144,0.28595,0.29502,0.5300600000000001,0.64666,0.77336,1.1201,1.4922,1.317,1.3596,1.1556,0.77909,0.50826,0.6916399999999999,0.51531,0.026264,-0.39166,-0.60807,-0.65162,-0.29788000000000003,-0.46618999999999994,-0.51178,-0.627,-0.616,-0.57558,-0.50926,-0.64225,-0.60314,-0.43183,-0.34473000000000004,0.30672,1.5483,1.6713,1.2078,1.213,0.37726,-0.21556,-0.9396399999999999,-0.20847,-0.6583
2,-0.65567,-1.3642,-1.5284,-2.1918,-2.2835,-2.3485,-2.5234,-2.4332,-2.3063,-2.1407,-1.8478,-1.3597,-0.85375,-0.59339,-0.51063,-0.44003000000000003,-0.29441,-0.093948,0.051578,0.095717,0.076334,0.040825,0.047661,0.10489000000000001,0.16634000000000002,0.18328,0.16402,0.14035999999999998,0.1017,0.11987,0.20319,0.18645,0.12900999999999999,0.12401,0.1179,0.16871,0.21611,0.15136,0.13421,0.21404,0.23894,0.20994000000000002,0.22891,0.27114,0.28856,0.28163,0.25924,0.25156,0.2565,0.2368,0.23451999999999998,0.27371,0.28355,0.28774,0.33402,0.37135,0.40276,0.4115,0.39760999999999996,0.42894,0.44816000000000006,0.44228,0.44213,0.45052,0.5212899999999999,0.55776,0.52863,0.5350199999999999,0.49338999999999994,0.45968000000000003,0.54245,0.5917100000000001,0.5797,0.62231,0.6429199999999999,0.6068899999999999,0.60726,0.6190399999999999,0.64866,0.73183,0.7439600000000001,0.7065899999999999,0.7348399999999999,0.71786,0.65749,0.71259,0.7188,0.5764,0.5555899999999999,0.63993,0.62038,0.60922,0.65977,0.63394,0.60141,0.64035,0.65132,0.64205,0.64183,0.6028600000000001,0.5903,0.62027,0.60839,0.61382,0.66919,0.6493399999999999,0.61254,0.6592100000000001,0.69963,0.70862,0.71855,0.68383,0.6271,0.59135,0.56634,0.6086600000000001,0.6855100000000001,0.65292,0.6065,0.61603,0.5842,0.53885,0.54285,0.63575,0.69597,0.56726,0.35363,-0.020505000000000002,-0.61707,-1.1603,-1.7324,-2.4138,-3.1296,-3.6203,-3.4614,-2.9995,-2.072,-1.2079,-1.3855,-0.14232999999999998
1,0.53974,0.66578,-1.2756,-2.8467,-3.4999,-4.3828,-3.9607,-2.6571,-1.9283,-1.6057,-0.49801999999999996,-0.15959,-0.26229,-0.21581,-0.35806,-0.12268,-0.19592,-0.23573000000000002,-0.25888,-0.28534,-0.27224,-0.20865,-0.3589,-0.33653,-0.30833,-0.47298999999999997,-0.46103999999999995,-0.67796,-0.5569,-0.63149,-0.64732,-0.6268699999999999,-0.74758,-0.81792,-0.8785,-1.0072,-0.88886,-0.91876,-0.8838,-0.91614,-0.78574,-0.74283,-0.77873,-0.5273899999999999,-0.4507,-0.33726,-0.44836000000000004,-0.20223,-0.05274500000000001,0.050061,0.031232999999999997,0.019031,0.077312,0.15275,0.22407,0.18285,0.17402,0.21316999999999997,0.19662000000000002,0.30387,0.32716999999999996,0.24945,0.35215,0.28454,0.41481999999999997,0.3638,0.37091999999999997,0.44168999999999997,0.52935,0.51479,0.59539,0.6162,0.6227199999999999,0.67989,0.6978,0.6643899999999999,0.6037600000000001,0.58133,0.5437,0.60798,0.575,0.58186,0.4533,0.54875,0.46008000000000004,0.40378000000000003,0.43668999999999997,0.3032,0.5222100000000001,0.42012,0.40439,0.42607,0.32299999999999995,0.38253000000000004,0.37489,0.24600999999999998,0.37031,0.33646,0.31924,0.2874,0.44056000000000006,0.5605399999999999,0.6725899999999999,0.98308,1.251,1.2321,1.6038,2.0192,2.3689,2.4217,2.325,2.0540000000000003,1.7484,1.4691,0.95481,0.25551,-0.25678,-0.31246,-0.46308,-0.3581,-0.36193000000000003,-0.31974,-0.42845,-0.29101,-0.41658999999999996,-0.45403999999999994,-0.37164,-0.36891999999999997,-0.29578000000000004,-0.46945,-0.32955999999999996,-0.23513,0.57473,1.0586,0.8866299999999999,1.2658,0.8957799999999999,-0.015880000000000002,-0.70528,0.037301999999999995
1,-0.83354,-1.4633,-2.2680000000000002,-2.8930000000000002,-3.4219999999999997,-3.9662,-3.3819999999999997,-2.0107,-1.6993,-1.4944,-0.58348,-0.37435999999999997,-0.50368,-0.62128,-0.072647,0.046095,-0.52564,-0.69091,-0.65257,-0.46966,-0.34263000000000005,-0.37346999999999997,-0.4592,-0.7680899999999999,-0.65399,-0.6210600000000001,-0.68487,-0.48203,-0.4654,-0.59964,-0.38479,-0.25096999999999997,-0.33979000000000004,-0.52715,-0.81116,-0.29373,-0.072123,-0.3357,-0.51177,-0.46751000000000004,-0.029017,-0.36813,-0.53274,-0.48476,-0.32526,-0.3454,-0.38626,-0.037913,-0.11792000000000001,-0.31666,-0.34178000000000003,-0.050586,0.090647,-0.021408,0.045424,-0.40065,-0.53663,-0.22964,-0.26916,-0.17795,-0.11472,-0.14679,-0.18661,-0.19648,-0.12575,-0.035822,0.10879000000000001,0.01349,-0.00659,0.066913,0.20113,0.3389,0.33958,0.22046999999999997,0.26165,0.31004,0.45576000000000005,0.36035,0.52578,0.53704,0.51553,0.44672,0.46038999999999997,0.36591,0.35961,0.49323999999999996,0.4661,0.44853000000000004,0.4607,0.47453,0.39578,0.45111999999999997,0.45586000000000004,0.39294,0.35048,0.45891000000000004,0.40051,0.46103999999999995,0.61841,0.8458399999999999,0.81393,1.1036,1.4205,1.5634,1.9818,2.158,2.2622,2.2698,2.1455,1.7637,1.6027,1.3191,1.0151,0.64956,0.35753,0.21170999999999998,0.12964,0.15774000000000002,0.21416,0.16284,0.31051999999999996,0.50732,0.51418,0.5551,0.53033,0.5873,0.4868,0.4622,0.53689,0.6190100000000001,0.97591,1.8067,2.0839,1.4037,0.50692,-0.62905,-1.3483,-1.5712,-1.3197,-0.40873000000000004
1,-0.89012,-2.9628,-3.9339,-4.1467,-4.0186,-3.4808,-2.3859,-1.7193,-1.4969,-0.8972600000000001,-0.50698,-0.38531,-0.4685,-0.36727,-0.39354,-0.3952,-0.31878,-0.42233000000000004,-0.35945,-0.33968000000000004,-0.35170999999999997,-0.40175,-0.40757,-0.42773999999999995,-0.36480999999999997,-0.48136,-0.45116000000000006,-0.47213999999999995,-0.56414,-0.51635,-0.61835,-0.65592,-0.64225,-0.67795,-0.63752,-0.65298,-0.54071,-0.5896100000000001,-0.50648,-0.51107,-0.43308,-0.40364,-0.31731,-0.28108,-0.21529,-0.18700999999999998,-0.085051,0.06213099999999999,-0.033424,0.088801,0.043425,0.06883099999999999,0.13034,0.066111,0.19341,0.11852,0.18003,0.1545,0.18830999999999998,0.18168,0.17644,0.22549,0.28465999999999997,0.3142,0.27055999999999997,0.30251,0.35516,0.39079,0.39000999999999997,0.5108,0.50421,0.56421,0.59558,0.64565,0.6713399999999999,0.71949,0.73028,0.63795,0.6912699999999999,0.61705,0.62136,0.5960300000000001,0.56516,0.59018,0.57244,0.53304,0.3767,0.37549,0.5324399999999999,0.38153000000000004,0.49756000000000006,0.40237,0.37722,0.48,0.57845,0.69624,0.8302200000000001,1.0342,1.061,1.3,1.4981,1.7174,1.9408,1.8662,1.7533,1.7113,1.5431,1.3333,1.0857,0.82463,0.516,0.070408,-0.18485,-0.22127,-0.37889,-0.34455,-0.39914,-0.40826,-0.32159,-0.37067,-0.3792,-0.39813000000000004,-0.38958000000000004,-0.40595,-0.37609000000000004,-0.3525,-0.33047,-0.32702,-0.11158,0.29233000000000003,0.86354,0.86082,0.9585100000000001,1.0156,0.9576899999999999,0.63041,0.65071,0.73073,1.365,0.35548
1,-1.1673,-3.8051,-4.3736,-4.3528,-3.2786,-2.2965,-1.5824,-1.158,-0.30166,-0.068039,-0.28044,-0.08759299999999999,-0.22054,-0.11119000000000001,-0.14147,-0.12385999999999998,-0.18093,-0.26536,-0.22605999999999998,-0.37356,-0.31701,-0.46381000000000006,-0.51791,-0.43223,-0.52681,-0.5345,-0.6681600000000001,-0.72417,-0.7549600000000001,-0.70433,-0.89381,-0.9104399999999999,-0.9223100000000001,-0.94744,-1.0011,-1.0183,-0.9659700000000001,-0.91248,-0.95755,-0.80273,-0.61419,-0.58058,-0.53093,-0.42722,-0.42383999999999994,-0.27151,-0.18479,-0.13302,-0.07139,-0.11821,-0.16864,-0.14268,-0.076373,-0.032987999999999996,-0.059223000000000005,-0.022415,0.10350999999999999,0.014136000000000001,0.027919,0.13283,0.15311,0.13188,0.16127,0.18632,0.32333,0.32406999999999997,0.20663,0.26334,0.43628999999999996,0.39633,0.49788000000000004,0.54888,0.61685,0.56333,0.61758,0.44427,0.47008,0.6280399999999999,0.6078600000000001,0.5290699999999999,0.5010399999999999,0.40647,0.40141,0.20536,0.25831,0.36926,0.35877,0.28245,0.21821,0.35631999999999997,0.12209,0.18152000000000001,0.20844000000000001,0.26245,0.29428000000000004,0.3225,0.33915,0.32824000000000003,0.53033,0.75108,0.8935,1.1341,1.2108,1.3943,1.6593,1.9111,1.8193,1.7467,1.6358,1.3973,1.2194,0.96965,0.70562,0.30053,-0.054225,-0.19432,-0.19372,-0.13737,-0.20506,-0.15020999999999998,-0.19604000000000002,-0.16871,-0.18105,-0.10870999999999999,-0.085562,-0.06373,0.0056556,0.055309000000000004,0.23945,0.74382,1.6921,1.9308,1.7296,1.8781,1.3714,0.73537,0.30191,0.5849300000000001,1.1736,-0.55419
1,-0.86918,-2.2066,-2.9896,-3.51,-3.2894,-3.0073,-2.2406,-1.7116,-1.8056,-1.4183,-0.9017299999999999,-0.76825,-0.87576,-0.9486,-0.7749,-0.8208799999999999,-0.9686799999999999,-0.83526,-0.8638399999999999,-0.87545,-0.79903,-0.80645,-0.8105,-0.8338399999999999,-0.75705,-0.7363,-0.8062600000000001,-0.88313,-0.9134700000000001,-0.77745,-0.8525,-0.94052,-0.9328,-0.88051,-0.77325,-0.9586399999999999,-0.9195399999999999,-0.7998,-0.83439,-0.8547100000000001,-0.85583,-0.6721600000000001,-0.66109,-0.50698,-0.3554,-0.42177,-0.53625,-0.32595999999999997,-0.31717,-0.37731,-0.32989,-0.17649,-0.19571,-0.16041,-0.14925,-0.12409,-0.028447000000000004,0.026180000000000002,-0.15007,-0.15394000000000002,-0.14604,-0.021657,-0.014306000000000001,0.039257,0.20494,0.11602,0.08430399999999999,0.11124,0.21273000000000003,0.26164,0.13537000000000002,0.30075,0.45143999999999995,0.40357,0.48383999999999994,0.5139100000000001,0.5686399999999999,0.5370199999999999,0.41885,0.37096,0.37716,0.47553999999999996,0.49642,0.47273999999999994,0.44678,0.4684,0.5078199999999999,0.53981,0.45266000000000006,0.53897,0.39855,0.46246000000000004,0.51686,0.4686,0.55578,0.62973,0.77315,0.88807,0.80318,0.76937,1.0906,1.197,1.3296,1.505,1.5629,1.5761,1.4033,1.2858,1.1047,1.122,0.95281,0.7832100000000001,0.60946,0.34252,0.40504,0.45645,0.5019100000000001,0.52328,0.43453,0.43573,0.58882,0.55894,0.36612,0.41786999999999996,0.62789,0.68542,0.59937,0.61441,0.7286199999999999,0.8721700000000001,1.1669,1.2969,1.2886,1.5334,1.5095,1.3902,1.3655,1.3225,1.8521,1.5419
2,0.7086600000000001,-0.38873,-1.3738,-2.0011,-2.6881,-2.9960000000000004,-2.8776,-2.4602,-1.7973,-1.3572,-1.0042,-0.92058,-0.67545,-0.24479,0.096445,0.19632,0.15120999999999998,0.13671,0.22615,0.22838000000000003,0.25444,0.23315999999999998,0.20145,0.17588,0.19386,0.24588000000000002,0.18065,0.23049,0.23066,0.14135999999999999,0.092972,0.13367,0.16714,0.14664000000000002,0.10962999999999999,0.058904,0.066817,0.057412,0.020945,0.06755,-0.041943,-0.057839999999999996,-0.1417,-0.09098300000000001,-0.16777,-0.24198000000000003,-0.13648,-0.179,-0.28606,-0.26206999999999997,-0.34692,-0.30961,-0.32709,-0.2727,-0.27874,-0.24303000000000002,-0.19782,-0.35035,-0.3228,-0.19337000000000001,-0.16560999999999998,-0.1175,-0.057548,-0.046854,0.032662000000000004,0.11404,0.121,0.1762,0.23095,0.31693000000000005,0.34959,0.32971999999999996,0.41606000000000004,0.42688999999999994,0.46525,0.48963999999999996,0.4515,0.49338999999999994,0.5351600000000001,0.5634899999999999,0.56607,0.5876600000000001,0.6435,0.6230399999999999,0.5697,0.6501899999999999,0.59696,0.6311100000000001,0.64768,0.69072,0.66291,0.66943,0.7084600000000001,0.6661,0.68662,0.72965,0.7292,0.74988,0.7688699999999999,0.79437,0.78875,0.8338399999999999,0.8296399999999999,0.9042899999999999,0.95245,1.0048,0.9557399999999999,0.9773700000000001,1.0206,1.0008,1.0837,1.0603,1.084,1.1709,1.1213,1.1736,1.1336,1.1276,1.0177,0.81033,0.7862100000000001,0.73343,0.7282,0.6492399999999999,0.49963,0.23223000000000002,-0.0039001999999999995,-0.14544,-0.071739,-0.07964700000000001,-0.42096000000000006,-0.74667,-1.3297,-1.9156,-2.5308,-3.1737,-3.9130000000000003,-3.5058,-2.509,-1.3517
1,-2.2435,-3.1673,-3.3464,-3.7617,-3.693,-3.3801,-2.7805,-2.0871,-1.7735,-1.6084,-1.2063,-1.0361,-0.92817,-0.9046200000000001,-0.88229,-0.9010100000000001,-0.84106,-0.78176,-0.59585,-0.6117199999999999,-0.6186,-0.6027100000000001,-0.6460899999999999,-0.55485,-0.48165,-0.37734,-0.37356,-0.37625,-0.26526,-0.33381,-0.22344,-0.17243,-0.15446,-0.050539999999999995,0.00058714,0.040775,0.0012709000000000002,-0.031322,0.05002,0.098851,0.16902,0.19960999999999998,0.21022,0.15622,0.16535,0.28149,0.24270999999999998,0.22705999999999998,0.26979000000000003,0.25388,0.31887,0.30823,0.35423000000000004,0.29811,0.39516999999999997,0.39771,0.33076,0.30634,0.22983,0.25340999999999997,0.24674000000000001,0.25358,0.24416,0.2983,0.28347,0.20306,0.29888000000000003,0.28644000000000003,0.35613,0.43733,0.32256999999999997,0.4046,0.4218,0.43308,0.43823,0.44438999999999995,0.6331100000000001,0.60807,0.55761,0.5969300000000001,0.61788,0.6077899999999999,0.65441,0.57476,0.5493,0.6102,0.5526300000000001,0.5818399999999999,0.61893,0.64537,0.72297,0.7651899999999999,0.8224899999999999,0.84878,1.0177,1.1353,1.3999,1.6274,1.7484,1.6914,1.7332,1.5936,1.4319,1.3636,1.1656,1.0189,0.8292700000000001,0.59363,0.38421,0.27914,0.20669,0.19715,0.11531,0.11989000000000001,0.20409000000000002,0.094641,0.02544,0.037624,0.18118,0.081377,0.072938,0.059887,0.10805,0.042809,0.095692,0.17967,0.20447,0.51782,0.91627,1.0625,0.8930100000000001,0.45652,-0.19643,-0.6845100000000001,-0.94981,-0.92643,-0.62559,-0.28341,-0.57645,-1.3513
1,1.0067,-0.7129800000000001,-2.1091,-3.2563,-4.0038,-3.32,-2.2245,-1.8241,-1.6001,-0.5525899999999999,-0.37390999999999996,-0.44742,-0.34219,-0.40621999999999997,-0.41757,-0.46513999999999994,-0.41796000000000005,-0.40867,-0.4336,-0.5041399999999999,-0.44853999999999994,-0.49157,-0.53982,-0.5120600000000001,-0.61954,-0.65659,-0.6896899999999999,-0.70801,-0.83093,-0.89896,-1.0343,-1.1047,-1.198,-1.2684,-1.2506,-1.2657,-1.3383,-1.2545,-1.2814,-1.3512,-1.2038,-1.1771,-0.96441,-0.78746,-0.75134,-0.6149600000000001,-0.42236,-0.35577,-0.36893000000000004,-0.18959,-0.087355,-0.1068,-0.024061000000000003,0.086023,0.096182,0.05585,0.11144000000000001,0.098288,0.12159,0.25785,0.2777,0.23024,0.32278,0.33279000000000003,0.37178,0.39661,0.48081,0.44951,0.5949,0.59833,0.63036,0.78073,0.71126,0.74629,0.72843,0.75244,0.83539,0.81142,0.75236,0.6752100000000001,0.70963,0.62715,0.62488,0.5785600000000001,0.48555,0.59108,0.44955,0.42295,0.4802,0.48083000000000004,0.5463899999999999,0.46716,0.5038,0.45716999999999997,0.40156,0.30596,0.38831,0.35841,0.37315,0.33896,0.51027,0.8947799999999999,1.0759,1.2532,1.2826,1.4882,1.8086,2.0609,2.1156,1.9717,1.6832,1.4042,1.2983,1.0039,0.49368,-0.08099400000000001,-0.24117,-0.2368,-0.20695999999999998,-0.30108,-0.1985,-0.15594,-0.24216999999999997,-0.27085,-0.23878000000000002,-0.17448,-0.17427,-0.19338,-0.26326,-0.18304,-0.051286,0.08874800000000001,0.7179399999999999,0.77113,0.92275,1.6828,1.8072,1.6421,0.7774,1.1702
2,-2.2225,-2.8215,-2.8244,-2.8753,-2.6504,-2.263,-1.6422,-1.0852,-0.79575,-0.69545,-0.57672,-0.16848,0.18715,0.24848,0.30022,0.33814,0.29909,0.32899,0.2828,0.2981,0.33319,0.26886,0.28548,0.25634,0.30587,0.3443,0.27546,0.22784000000000001,0.31937,0.28526,0.24636,0.25594,0.17981,0.22493000000000002,0.17893,0.1223,0.10453,0.096736,0.18642999999999998,0.055465999999999994,0.043653,-0.021933,-0.025016,-0.024918,-0.040737999999999996,-0.021109,-0.014027000000000001,-0.11075,-0.10572999999999999,-0.08392100000000001,-0.188,-0.12869,-0.18833,-0.17826,-0.13477999999999998,-0.15153,-0.1789,-0.15642999999999999,-0.070579,-0.1531,-0.088888,-0.08195,-0.061375,-0.0083214,0.036185,0.11199999999999999,0.14708,0.18473,0.20501,0.3045,0.32101999999999997,0.29899000000000003,0.41663999999999995,0.38824000000000003,0.37293000000000004,0.45221999999999996,0.49625,0.49093000000000003,0.46715,0.5514100000000001,0.5108,0.47323000000000004,0.55657,0.5423899999999999,0.5665600000000001,0.55988,0.5018100000000001,0.60685,0.57803,0.55624,0.62617,0.68693,0.64259,0.65963,0.73487,0.6778,0.68547,0.59224,0.67865,0.67308,0.71355,0.80509,0.7934100000000001,0.75971,0.84044,0.83767,0.75846,0.79623,0.83119,0.91456,0.9123899999999999,0.9776299999999999,0.88444,0.8446799999999999,0.8920399999999999,0.91763,0.89174,0.8787,0.82824,0.6157,0.42525,0.43343000000000004,0.50969,0.41607,0.29502,0.19672,0.07991799999999999,0.010464,0.095562,0.195,0.096291,-0.16201,-0.64423,-1.1716,-1.8257,-2.6744,-3.9286,-4.1861,-3.7836,-2.4678
2,-0.91837,-1.2429,-1.3008,-1.6874,-1.6892,-1.8778,-2.0834,-2.1089,-2.0069,-1.7612,-1.4595,-1.0345,-0.6821699999999999,-0.48836999999999997,-0.38674000000000003,-0.28068000000000004,-0.039514,0.15181,0.2111,0.23986,0.25974,0.29879,0.26415,0.2231,0.25261,0.23229,0.22186999999999998,0.25858000000000003,0.28854,0.32208000000000003,0.31833,0.28445,0.28826,0.31349,0.3353,0.34512,0.29951,0.25542,0.26986,0.26866,0.24076999999999998,0.25663,0.31465,0.30264,0.27588,0.32175,0.29663,0.29143,0.32094,0.25934,0.2724,0.30462,0.31814000000000003,0.35035,0.30357,0.30491,0.32314,0.28679,0.28002,0.27763000000000004,0.29954000000000003,0.30332,0.27626999999999996,0.26628,0.28563,0.36453,0.36329,0.34097,0.40363000000000004,0.38114000000000003,0.375,0.44545,0.46403,0.4865,0.50293,0.46434,0.43178999999999995,0.48299,0.557,0.55967,0.58123,0.6048899999999999,0.57548,0.54369,0.5111899999999999,0.5466300000000001,0.55155,0.47846000000000005,0.49395,0.51803,0.52742,0.53083,0.5181,0.55947,0.53309,0.5090600000000001,0.55195,0.53698,0.53078,0.53077,0.51632,0.50308,0.46712,0.46918999999999994,0.47553999999999996,0.43961999999999996,0.46683,0.5092899999999999,0.47685,0.50113,0.51466,0.5059600000000001,0.57212,0.53563,0.5119,0.5469,0.44051999999999997,0.31728,0.26638,0.32452,0.4766,0.57252,0.6097600000000001,0.64367,0.67057,0.6370600000000001,0.52271,0.43427,0.40081,0.29825999999999997,-0.010721,-0.43946999999999997,-0.9283299999999999,-1.6676,-2.1163,-2.9472,-3.8888,-4.0697,-5.0917,-3.312
1,-1.0343,-2.325,-2.9216,-3.3254,-3.6594,-3.5329,-2.9328,-1.9989,-1.4131,-1.2,-0.7437600000000001,-0.35539,-0.26835,-0.2299,-0.28356,-0.21345999999999998,-0.13288,-0.17677,-0.35279,-0.25713,-0.24949000000000002,-0.26544,-0.20564000000000002,-0.27437,-0.19261,-0.24643,-0.3818,-0.30074,-0.28236999999999995,-0.31515,-0.29927,-0.34981999999999996,-0.4676,-0.50245,-0.45497,-0.45598,-0.4683,-0.48512,-0.45256,-0.41785,-0.39252,-0.34454,-0.2982,-0.22860999999999998,-0.25608000000000003,-0.13162000000000001,0.022843000000000002,-0.014056,-0.018618,-0.092137,-0.049949,-0.13166,-0.010392,0.014093000000000001,-0.096794,-0.062747,-0.088095,-0.11629,-0.025349,-0.058812,-0.042664999999999995,-0.066039,-0.018083000000000002,-0.044312,-0.15361,-0.032392000000000004,0.088392,0.08666599999999999,0.10577,0.09162200000000001,0.099253,0.066914,0.21099,0.1833,0.21888000000000002,0.29884,0.38341,0.46187,0.5035,0.52787,0.5304300000000001,0.52349,0.46005,0.50553,0.66966,0.55874,0.46951000000000004,0.48268999999999995,0.6341899999999999,0.59436,0.6201800000000001,0.62048,0.6673899999999999,0.71606,0.77004,0.9775799999999999,1.2055,1.3421,1.669,2.1531,2.3814,2.3938,2.4057,2.1632,1.9419,1.8354,1.5574,1.3717,1.0101,0.5261399999999999,0.28962,0.032376999999999996,-0.022418,-0.049571,-0.0704,-0.11015,-0.1717,-0.13364,-0.079301,-0.08615700000000001,-0.078916,-0.0015093,-0.12480999999999999,-0.16091,-0.20228,-0.096401,0.012102,0.30954,0.72022,1.4133,1.6889,1.3728,0.9401200000000001,0.098332,-0.46978000000000003,-0.98425,-1.2151,-1.1662,-0.5957,-0.9802200000000001
2,0.86454,-0.10092999999999999,-1.2346,-1.9717,-2.2988,-2.6526,-2.6262,-2.4289,-1.931,-1.3980000000000001,-0.9191,-0.74152,-0.7448899999999999,-0.41815,0.0065857,0.24570999999999998,0.20385,0.16851,0.23169,0.2215,0.22123,0.25183,0.24698,0.24251,0.30315,0.22582,0.25232,0.24154,0.20804,0.2482,0.18173,0.22821999999999998,0.24036999999999997,0.25232,0.23205,0.1974,0.17695999999999998,0.15212,0.12353,0.2387,0.10564000000000001,0.067865,0.013113999999999999,0.0095993,0.039659,-0.017006999999999998,0.04314,-0.10277,-0.0020102999999999996,-0.031063999999999998,-0.16288,-0.14999,-0.10455,-0.087227,-0.084388,-0.23538,-0.19214,-0.13276,-0.1838,-0.17338,-0.13666,-0.09312899999999999,-0.051807000000000006,-0.039031,-0.11210999999999999,-0.068682,0.099639,0.13535,0.20442000000000002,0.28333,0.26138,0.26061999999999996,0.30638000000000004,0.40348,0.40973000000000004,0.38288,0.46025,0.51468,0.47234,0.55092,0.6057600000000001,0.57453,0.58022,0.5323899999999999,0.63017,0.6289100000000001,0.63786,0.6556,0.62684,0.61849,0.69877,0.67423,0.69752,0.73865,0.73929,0.69498,0.73993,0.71138,0.83891,0.78551,0.8507399999999999,0.86851,0.8982399999999999,0.88095,0.82878,0.81333,0.8873700000000001,0.92255,0.9612299999999999,0.9574,0.9514600000000001,0.9389,0.98939,0.93829,0.93927,1.0096,0.90889,0.85745,0.90633,0.72239,0.5652,0.60949,0.66592,0.61774,0.32382,0.14306,-0.079237,-0.34999,-0.23663,-0.073306,-0.46232,-0.87472,-1.4721,-2.0345,-2.5883,-3.4438,-4.1595,-3.9160000000000004,-2.8163,-1.6641
1,-0.50162,-1.0886,-1.9397,-3.8885,-3.9511,-3.7057,-2.8737,-1.9517,-1.1508,-0.88887,-0.45111,-0.12966,-0.062786,-0.15012999999999999,-0.30613,-0.60497,-0.78008,-0.68535,-0.64818,-0.64255,-0.56672,-0.4993,-0.45561,-0.49736,-0.4784,-0.43096999999999996,-0.34893,-0.3812,-0.34436,-0.2894,-0.35078000000000004,-0.34159,-0.35891999999999996,-0.3552,-0.42572,-0.39905999999999997,-0.45447,-0.43383,-0.49751999999999996,-0.5948399999999999,-0.60672,-0.61033,-0.5979,-0.5917899999999999,-0.55789,-0.52713,-0.54755,-0.47495,-0.41805,-0.37978,-0.33453,-0.3022,-0.29336999999999996,-0.33207,-0.27697,-0.26287,-0.25469,-0.27885,-0.24986,-0.32466999999999996,-0.30075999999999997,-0.37537,-0.28639000000000003,-0.30999,-0.32541,-0.29185,-0.26466,-0.27092,-0.23601999999999998,-0.22862,-0.22546,-0.20611999999999997,-0.22389,-0.21852,-0.14481,-0.11982000000000001,-0.14737,-0.037944,-0.085063,-0.046367,-0.033447000000000005,-0.004885199999999999,0.014001,0.026848,0.053282,0.062308,0.07206,0.10269,0.13077,0.14254,0.21227,0.23911999999999997,0.24076999999999998,0.25706999999999997,0.30229,0.2949,0.23629,0.31484,0.39682,0.4084,0.46336000000000005,0.45886000000000005,0.5261100000000001,0.5441,0.53603,0.55625,0.63702,0.67599,0.76512,0.97404,1.1481,1.3256,1.5865,1.7036,1.7635,1.733,1.5713,1.4124,1.2507,0.99159,0.64598,0.5497,0.54583,0.62845,0.65994,0.64974,0.63197,0.67307,0.65685,0.70476,0.77685,0.8281200000000001,1.1968,1.4451,1.505,1.7656,2.0335,2.0393,2.5895,2.8547
1,-1.0052,-2.4363,-3.4994,-3.838,-3.8017,-3.6439,-3.3289999999999997,-2.7793,-1.7577,-1.0347,-0.93514,-0.5686100000000001,-0.23404,-0.20889000000000002,-0.19577,-0.13777999999999999,-0.15399000000000002,-0.2014,-0.22885,-0.20212,-0.30374,-0.17736,-0.15702,-0.16399999999999998,-0.13135,-0.09628300000000001,-0.17665999999999998,-0.18897,-0.24326,-0.21235,-0.15103,-0.23826,-0.16849,-0.23053,-0.20057,-0.20345,-0.17618,-0.2123,-0.15242999999999998,-0.15564,-0.14400000000000002,-0.01771,0.0096195,0.020635,-0.19202,-0.1514,-0.13402,-0.044068,0.044815,0.12067,0.13054000000000002,0.015069999999999998,0.12295999999999999,0.18211,0.14845,0.14489000000000002,0.088951,0.16580999999999999,0.036857,0.08148899999999999,0.12966,0.09109400000000001,0.071504,0.019089,0.0028242,0.047080000000000004,0.025487,0.018797,-0.044738,-0.11905999999999999,-0.016008,0.099762,0.19172,0.17977,0.21233000000000002,0.28308,0.28324,0.25873,0.31484,0.43295,0.4377,0.50888,0.37288000000000004,0.45447,0.5556800000000001,0.5431,0.6187,0.6098,0.69447,0.72209,0.6825399999999999,0.91128,0.9166200000000001,1.0481,1.2528,1.5021,1.7648,2.0447,2.204,2.0854,1.7713,1.5918,1.5174,1.3419999999999999,1.1794,0.91581,0.63832,0.31522,0.042942,-0.10884,-0.27260999999999996,-0.34454,-0.28010999999999997,-0.17451,-0.1573,0.0015682,-0.055849,-0.16403,-0.16324,-0.26141,-0.22619,-0.17704,-0.23365999999999998,-0.26081,-0.19305999999999998,-0.073189,0.1799,0.50012,1.0374,1.4136,1.3582,1.2671,0.96672,0.65559,0.22623000000000001,-0.30168,-0.59309,-0.23485,-0.18233,-1.5724
1,1.8471,0.23148000000000002,-1.6858,-3.0072,-3.8510000000000004,-3.9658,-2.7114,-2.0427,-1.6781,-0.7419899999999999,-0.27633,-0.36435,-0.25961999999999996,-0.30724,-0.39478,-0.32958000000000004,-0.32748,-0.34652,-0.35644000000000003,-0.41739,-0.53979,-0.4688,-0.51703,-0.56195,-0.62427,-0.65061,-0.7487,-0.7983,-0.76372,-0.91165,-0.91071,-0.94616,-0.9891399999999999,-1.0894,-1.0590000000000002,-1.0069,-1.0606,-1.2595,-1.0513,-1.0209,-0.9909399999999999,-0.80099,-0.7858,-0.66967,-0.5683,-0.49146999999999996,-0.37737,-0.26342,-0.16885999999999998,-0.16091,-0.2072,0.02976,-0.14755,-0.10875,-0.085543,0.0236,0.047982,0.10167000000000001,0.082609,0.093399,0.156,0.11705,0.1193,0.11475999999999999,0.20424,0.29329,0.31784,0.38564,0.42565,0.43083,0.47873000000000004,0.57387,0.63269,0.69986,0.64148,0.61175,0.63744,0.7166899999999999,0.59731,0.49641,0.45758000000000004,0.5998899999999999,0.5504,0.41848,0.47996000000000005,0.43443999999999994,0.3928,0.46076000000000006,0.46516,0.39121999999999996,0.33915,0.31501999999999997,0.28256,0.31528,0.35388000000000003,0.33038,0.26579,0.39204,0.31537,0.35496,0.5040100000000001,0.83859,1.0854,1.3659999999999999,1.436,1.5469,1.9648,2.3004,2.3071,2.2315,2.0675,1.8768,1.5521,1.2403,0.69643,0.00728,-0.18672,-0.3032,-0.41297,-0.28909,-0.27204,-0.26411,-0.25948000000000004,-0.33307,-0.3708,-0.19532,-0.35824,-0.27221,-0.18302000000000002,-0.24706999999999998,-0.18628,-0.074198,0.56265,1.0727,1.1193,1.4482,1.3205,1.1262,0.61655,0.76636
2,-0.3431,-1.5971,-2.3881,-3.1254,-3.1452,-3.0152,-2.8485,-2.5861,-2.2582,-1.6542,-1.0367,-0.72102,-0.62103,-0.50758,-0.22569,0.20428,0.47348999999999997,0.4559,0.47333000000000003,0.55314,0.47511000000000003,0.48073999999999995,0.57411,0.48756000000000005,0.41591000000000006,0.44736000000000004,0.44298000000000004,0.42339,0.43888999999999995,0.47518,0.45206999999999997,0.39315,0.3965,0.42399,0.41743,0.38935,0.32495999999999997,0.27859,0.30380999999999997,0.29601,0.31334,0.31383,0.18508,0.18978,0.23151999999999998,0.18325999999999998,0.19289,0.11888,0.10843,0.15985,0.072532,0.041745,0.021068,-0.0035234000000000003,0.041687,-0.007953199999999999,-0.077499,-0.07495299999999999,-0.11141,-0.087278,0.00081078,-0.069846,-0.12786,-0.10396,-0.14945,-0.07928099999999999,0.044014,0.067302,0.087425,0.07557699999999999,0.066977,0.099689,0.086987,0.11709000000000001,0.2057,0.18723,0.20302,0.32232,0.36222,0.45052,0.5767800000000001,0.53704,0.52684,0.6141800000000001,0.59234,0.60938,0.6651199999999999,0.5667399999999999,0.58034,0.70331,0.73658,0.74144,0.6947800000000001,0.7106399999999999,0.72825,0.6640699999999999,0.7124199999999999,0.73477,0.66838,0.7209899999999999,0.76639,0.72263,0.7814300000000001,0.79319,0.71146,0.79176,0.87734,0.8796200000000001,0.87756,0.8735700000000001,0.91353,0.86159,0.84549,0.9262,0.8336,0.69781,0.6019899999999999,0.57428,0.69601,0.70262,0.54773,0.38888,0.32788,0.2997,0.13775,0.18406,0.47784,0.44531000000000004,0.082897,-0.28115999999999997,-0.75197,-1.273,-1.7652,-2.4290000000000003,-2.9454,-3.3052,-3.1752,-2.3114,-1.5974,0.048616
1,1.5319,0.92006,-0.4902,-2.0132,-2.835,-3.4859,-3.262,-2.3102,-1.7047,-1.6785,-1.025,-0.46376000000000006,-0.40599,-0.47395,-0.54447,-0.5402,-0.38264000000000004,-0.52569,-0.52663,-0.48389,-0.5294,-0.60755,-0.53614,-0.55978,-0.63062,-0.64403,-0.7196600000000001,-0.74621,-0.80129,-0.83125,-0.9363600000000001,-0.9933799999999999,-1.0413,-0.99045,-1.0152,-1.1421,-1.0959,-1.1346,-1.2256,-1.2343,-1.0326,-1.0616,-0.96872,-0.8910600000000001,-0.89707,-0.69918,-0.5697,-0.48673,-0.43496,-0.4453,-0.33163000000000004,-0.40143,-0.25577,-0.29565,-0.18229,-0.26272,-0.20729,-0.14138,-0.23076999999999998,-0.27016999999999997,-0.11682000000000001,-0.066774,-0.085409,-0.075672,-0.10626,-0.056187,-0.056801,0.032968,0.079746,0.066111,0.1143,0.14449,0.20035,0.19317,0.21511,0.19237,0.21974000000000002,0.30044,0.35348,0.37658,0.28097,0.29525,0.32323,0.30641999999999997,0.19566,0.33185,0.31566,0.2296,0.27107,0.17288,0.23229,0.27666999999999997,0.27941,0.25461,0.2571,0.23944000000000001,0.25534,0.31346,0.32303000000000004,0.54824,0.66351,0.9334100000000001,1.1134,1.265,1.3223,1.5413,1.9339,2.1014,2.1078,1.8907,1.7563,1.4807,1.2898,1.1098,0.79369,0.39241,0.21936999999999998,0.15716,0.18284,0.15404,0.18804,0.24156,0.16335,0.16572,0.21379,0.27232,0.29744,0.29761,0.34613,0.37221,0.5237,1.0161,1.2796,1.3615,1.7812,1.9777,2.226,1.6368,1.8501,1.9345
4,-1.5458,-2.6510000000000002,-3.1883,-3.2557,-2.9856,-2.6346,-1.9062,-1.024,-0.70903,-0.68894,-0.19804000000000002,0.11268,0.078026,0.093855,0.02975,0.07955,0.10960999999999999,0.09171499999999999,0.080946,0.12783,0.14326,0.085906,0.10332000000000001,0.13245,0.1095,0.043825,0.025660000000000002,-0.015767,-0.030461000000000002,-0.044073,-0.022056,-0.05462,-0.040586000000000004,-0.066437,-0.11137000000000001,-0.18149,-0.15333,-0.14784,-0.23901999999999998,-0.22604000000000002,-0.2447,-0.2405,-0.24764,-0.22985,-0.22173,-0.13038,-0.098139,-0.15636,-0.1248,-0.078422,-0.025891,0.039481999999999996,0.087859,0.13011,0.19997,0.25801999999999997,0.24579,0.19802999999999998,0.28481,0.33562,0.27166,0.33906,0.32957,0.2594,0.24354,0.27235,0.3674,0.31937,0.32103000000000004,0.32528,0.35658,0.27444,0.40985,0.32063,0.35855,0.35845,0.43821000000000004,0.43717,0.48077,0.4304,0.49325,0.51105,0.49123,0.50885,0.52996,0.57919,0.56379,0.59825,0.54057,0.5508,0.6712899999999999,0.60801,0.57211,0.5352,0.50074,0.60807,0.57253,0.46568000000000004,0.47471,0.5434100000000001,0.5234300000000001,0.44606999999999997,0.43865,0.5175,0.45032,0.46083,0.39997,0.39352,0.48012,0.47503999999999996,0.52641,0.5996,0.61466,0.72917,0.79587,0.90765,0.98425,1.0995,1.1841,1.3377,1.4643,1.325,1.2061,1.1475,1.0949,1.0272,0.8607600000000001,0.5271899999999999,0.25879,0.14694000000000002,0.12699000000000002,-0.17528,-0.64452,-1.2373,-1.839,-2.4359,-3.3907,-3.9941,-3.4906,-2.484
2,-0.16482,-1.3148,-1.7590000000000001,-2.2953,-2.5727,-2.6169,-2.2966,-1.7621,-1.2646,-0.89723,-0.68421,-0.63993,-0.30614,0.18519000000000002,0.34978000000000004,0.35354,0.28656,0.29325999999999997,0.31463,0.23151999999999998,0.25642,0.31713,0.29159,0.3121,0.30990999999999996,0.3201,0.23248000000000002,0.23381,0.25826,0.20002,0.2683,0.23163000000000003,0.20854,0.22639,0.20282999999999998,0.16080999999999998,0.098203,0.11147,0.17482,0.16693,0.06054299999999999,0.06952,-0.0067486,0.062190999999999996,0.10827,0.030160000000000003,-0.024191999999999998,-0.11220999999999999,-0.094737,-0.095105,-0.11107,-0.23738,-0.22830999999999999,-0.2287,-0.23214,-0.22253,-0.2715,-0.21356,-0.16108,-0.24499,-0.19488,-0.11707000000000001,-0.16385,-0.097763,-0.050694,-0.0090619,0.025616000000000003,-0.007686,0.087872,0.18977,0.24765,0.18182,0.31422,0.41588,0.45833,0.45421000000000006,0.45171000000000006,0.47423000000000004,0.4735,0.55247,0.5141899999999999,0.47472,0.59086,0.57521,0.53614,0.63395,0.68258,0.68252,0.70357,0.6843600000000001,0.69599,0.74479,0.74552,0.76705,0.7467,0.7228,0.7841,0.7771100000000001,0.78885,0.8527899999999999,0.85165,0.8286600000000001,0.8105600000000001,0.78813,0.84236,0.96406,0.9235700000000001,0.9204399999999999,0.91753,0.9472700000000001,0.9133600000000001,0.98998,0.9801700000000001,0.99946,1.0183,0.9855,0.9681200000000001,0.9564600000000001,0.92991,0.70758,0.63359,0.59395,0.59429,0.49165,0.29284,0.07551000000000001,-0.05459,-0.24319000000000002,-0.13934000000000002,-0.15237,-0.41394,-0.72578,-1.2646,-1.7737,-2.5651,-3.1953,-4.1327,-4.0489999999999995,-3.4174,-2.0562
1,1.7538,0.37745,-1.5316,-2.8362,-3.8725,-4.1497,-3.1652,-1.9307,-1.6298,-1.0859,-0.027169,0.11815,-0.062872,-0.01054,0.015507,0.013255000000000001,0.01985,-0.14477,-0.15338,-0.08227899999999999,-0.10595999999999998,-0.24527,-0.23005,-0.27801,-0.33021999999999996,-0.41143,-0.38114000000000003,-0.5008199999999999,-0.56882,-0.68412,-0.82588,-0.8439700000000001,-0.97821,-0.96536,-1.0483,-1.1609,-1.3199,-1.2687,-1.2783,-1.2805,-1.2221,-1.1904,-1.0889,-1.0144,-0.8531200000000001,-0.8024100000000001,-0.79879,-0.48691,-0.41403999999999996,-0.22512,-0.20656,-0.17781,-0.096451,-0.046847,-0.26436,-0.15755999999999998,-0.059328,-0.065589,-0.065789,-0.0692,0.043269999999999996,0.13568,0.095779,0.031932999999999996,0.22855999999999999,0.21529,0.38229,0.30956999999999996,0.3698,0.62712,0.61927,0.72923,0.69845,0.82424,0.75247,0.78678,0.7481899999999999,0.65865,0.6569,0.7240800000000001,0.77678,0.83006,0.53933,0.57798,0.43077,0.62283,0.43035,0.33283,0.39436,0.47243999999999997,0.23931999999999998,0.29373,0.36998000000000003,0.40465,0.32916999999999996,0.26128,0.24545999999999998,0.35388000000000003,0.37367,0.23747,0.6090300000000001,0.63359,1.0222,1.1336,1.1312,1.4078,1.6094,1.9658,1.6221,1.4097,1.0152,0.8528899999999999,0.86516,0.90607,0.76431,0.18882000000000002,-0.14934,-0.17279,-0.24349,-0.28636999999999996,-0.30399,-0.26441,-0.20008,-0.2776,-0.27219,-0.16573,-0.37193000000000004,-0.21111999999999997,-0.21029,-0.081402,0.27721999999999997,1.2046,1.9818,1.7164,2.244,2.2363,1.5230000000000001,-0.1852,-0.6623,-0.019418
1,-0.8322799999999999,-1.7004,-2.2573,-2.8537,-2.8533,-2.7015,-2.2857,-1.5555,-1.2666,-1.0859999999999999,-0.6946399999999999,-0.5885199999999999,-0.66247,-0.768,-0.77255,-0.62105,-0.61419,-0.63012,-0.6695800000000001,-0.68415,-0.69294,-0.6113,-0.6470100000000001,-0.62136,-0.64107,-0.6590699999999999,-0.62098,-0.67492,-0.6641600000000001,-0.7369399999999999,-0.7692399999999999,-0.6996600000000001,-0.8003,-0.72742,-0.75043,-0.7890699999999999,-0.7329600000000001,-0.76549,-0.69709,-0.7672800000000001,-0.71642,-0.64584,-0.57318,-0.5602600000000001,-0.61643,-0.61432,-0.55194,-0.40993999999999997,-0.46597,-0.42836,-0.42283999999999994,-0.37139,-0.39471999999999996,-0.42202,-0.35485,-0.40841,-0.42533999999999994,-0.38702,-0.41,-0.42726000000000003,-0.3869,-0.37227,-0.38800999999999997,-0.32093,-0.3617,-0.30422,-0.22083000000000003,-0.26523,-0.25316,-0.17679,-0.18034,-0.13543,-0.10219,-0.069772,-0.012026,0.019393,0.0023501999999999998,0.025685000000000003,0.1062,0.060627999999999994,0.14101,0.09862699999999999,0.10026,0.12497,0.13151,0.15842,0.10196000000000001,0.16902999999999999,0.19831,0.16514,0.19785999999999998,0.11946,0.24411,0.36,0.46533,0.50421,0.55612,0.68719,0.823,0.92351,1.0769,1.1586,1.1559,1.1377,1.0218,0.91858,0.8311299999999999,0.6805100000000001,0.5403,0.46393,0.13577,0.040806,0.055550999999999996,0.018918,0.14897,0.39534,0.77973,0.94139,1.0008,0.98593,0.97372,1.0345,1.0623,1.061,1.1162,1.2244,1.4212,1.6447,2.0072,2.1186,2.0283,2.1105,2.2037,2.2275,2.1717,2.0459,2.1264,2.1269,1.6793,0.9658100000000001
1,-0.73224,-2.8921,-4.2502,-4.4432,-3.491,-2.2714,-1.5572,-1.4358,-0.80714,-0.2456,-0.2845,-0.41786999999999996,-0.35791,-0.37213,-0.32529,-0.32645,-0.43522,-0.36891,-0.37938,-0.46038,-0.37744,-0.59218,-0.44616999999999996,-0.50432,-0.56692,-0.51646,-0.61993,-0.71202,-0.77483,-0.8295,-0.85975,-0.92961,-0.91038,-0.9980600000000001,-0.97408,-0.9449,-0.9701299999999999,-0.88744,-0.8525,-0.70343,-0.66613,-0.6278699999999999,-0.49903000000000003,-0.43268,-0.36821,-0.20951,-0.13495,-0.17434000000000002,-0.16501,-0.053942,0.018836000000000002,0.022039,0.060547000000000004,0.077665,0.056220000000000006,0.15933,0.078778,0.09284500000000001,0.05399299999999999,0.17712999999999998,0.2924,0.22855,0.29591,0.29768,0.26555,0.20237,0.27684000000000003,0.33888,0.40949,0.48707,0.53601,0.45003000000000004,0.42441999999999996,0.43715,0.49562,0.49949,0.51336,0.55635,0.6000300000000001,0.54696,0.58011,0.53784,0.55396,0.41435,0.46788,0.47192,0.36748000000000003,0.41941000000000006,0.418,0.37024,0.43025,0.4041,0.31255,0.36845,0.36787,0.54061,0.68575,0.9011399999999999,1.1606,1.3512,1.5473,1.7567,2.0146,2.0773,1.9959,1.8681,1.7543,1.4663,1.1965,0.95119,0.61711,0.17939000000000002,-0.089865,-0.19066,-0.20265,-0.23596999999999999,-0.27541,-0.29,-0.32841,-0.38148000000000004,-0.3141,-0.31432,-0.33261,-0.31015,-0.34239,-0.34561,-0.32814,-0.29241999999999996,-0.09640900000000001,0.40148,1.0287,1.0412,1.0125,1.1145,0.9855,0.92856,0.96629,1.2011,1.8474,0.79923
1,-2.5949,-4.1515,-4.6434,-4.3577,-3.9019,-2.9118,-1.5554,-1.2006,-0.77976,-0.11425999999999999,0.080947,0.075851,0.055182,0.20511999999999997,0.29669,0.15012999999999999,0.13432,0.24219000000000002,0.14849,0.09689600000000001,0.17476,0.15359,0.1905,0.074197,0.01295,0.024458,-0.007293600000000001,-0.066983,-0.073655,-0.10730999999999999,-0.07937000000000001,-0.14439000000000002,-0.25937,-0.17761,-0.18767999999999999,-0.17632,-0.12212999999999999,-0.14124,-0.31327,-0.11485,0.059494000000000005,-0.0211,-0.10665999999999999,0.012203,0.19386,0.077998,0.18124,0.28057,0.30773,0.2316,0.23276999999999998,0.33475,0.25408000000000003,0.24745999999999999,0.1748,0.121,0.18567,0.10048,0.09676599999999999,0.13543,0.18,0.11854,0.035526999999999996,0.19562000000000002,0.051953,0.18716,0.25118,0.19535,0.2501,0.30316,0.33674,0.25721,0.34135,0.33937,0.52008,0.50897,0.46955,0.51765,0.40343,0.39335,0.42298,0.45953,0.40123000000000003,0.27213000000000004,0.1788,0.32539,0.2766,0.28244,0.1838,0.17695,0.31324,0.28873000000000004,0.35924,0.55047,0.7455,0.80153,0.84629,1.099,1.3854,1.5977,1.808,1.8711,1.7326,1.5602,1.4163,1.2694,1.0032,0.79369,0.48518,0.13437000000000002,-0.20564000000000002,-0.46313999999999994,-0.54113,-0.45496000000000003,-0.47853,-0.6262800000000001,-0.60468,-0.64369,-0.5705100000000001,-0.5915600000000001,-0.6411899999999999,-0.58997,-0.59617,-0.64512,-0.55718,-0.56591,-0.38885,-0.095884,0.40814,0.78655,0.66955,0.8688,1.0016,0.79873,0.56891,0.31506999999999996,0.46475,0.45588,-0.59722,-2.4113
2,0.89487,-0.0038222,-0.75105,-1.3965,-1.7378,-2.113,-2.2132,-2.2033,-2.0242,-1.5915,-1.0499,-0.57789,-0.31314000000000003,-0.20084000000000002,-0.1838,0.016525,0.50921,0.77751,0.75067,0.78843,0.7713800000000001,0.7325699999999999,0.67986,0.62184,0.60469,0.5813,0.65998,0.63413,0.63559,0.76051,0.76912,0.73457,0.72109,0.7504,0.62613,0.51689,0.5455399999999999,0.50589,0.52589,0.49186,0.52837,0.62283,0.58039,0.54824,0.5077,0.51205,0.40907,0.31038000000000004,0.36845,0.38137,0.3342,0.18131,0.20182999999999998,0.29331999999999997,0.27946,0.29958,0.21474000000000001,0.18456,0.13198,0.057779,0.018045,-0.071802,0.0055355,0.066041,0.042363,0.055255,-0.0051269,-0.051986000000000004,-0.015207,-0.0094131,0.020943,0.09275499999999999,0.00073659,-0.071986,0.070327,0.09135499999999999,0.028343,0.17461,0.2868,0.27783,0.31537,0.31601999999999997,0.36638000000000004,0.44613,0.41105,0.42461000000000004,0.48313,0.4544,0.46775,0.5696899999999999,0.5484399999999999,0.52878,0.63875,0.64355,0.62232,0.6227600000000001,0.57585,0.5664,0.56635,0.57809,0.61301,0.63279,0.5945600000000001,0.61562,0.72445,0.7123,0.67086,0.71278,0.66167,0.5829300000000001,0.5856899999999999,0.6101300000000001,0.69307,0.6884399999999999,0.61338,0.60209,0.42122,0.16604000000000002,0.14347000000000001,0.19633,0.16141,0.12753,-0.018673,-0.23865,-0.3707,-0.5929,-0.63412,-0.44083,-0.51807,-0.70244,-0.89975,-1.4415,-1.8616,-2.3214,-2.8849,-3.5302,-4.4125,-3.9033,-3.5671,-1.5363
1,-1.3354,-3.469,-3.8149,-4.3905,-4.0063,-3.2849,-2.1571,-1.3821,-1.0301,-0.5776600000000001,-0.15225,-0.34735,-0.30395,-0.27271,-0.20382,-0.13091,-0.086812,-0.15665,-0.13259,-0.10372,0.10061,0.21013,0.10829000000000001,-0.028556,-0.14064000000000002,-0.051812000000000004,-0.10726,-0.16427,-0.13530999999999999,-0.0090366,0.074634,0.1729,0.45898999999999995,0.45769,0.057334,-0.24983000000000002,-0.14257999999999998,0.25803000000000004,0.27964,0.073788,0.18503,0.13427,0.20417000000000002,0.39188,0.3084,0.31690999999999997,0.37525,0.31925,0.12954000000000002,0.050297,0.17674,0.21832,0.20085999999999998,0.10618,0.08656,0.30676,0.25918,0.043706,-0.060892999999999996,-0.18929,-0.23510999999999999,-0.10877,0.009186399999999999,0.0067954999999999995,0.10985999999999999,0.09663300000000001,0.022158,0.0065852,0.031847,0.22645,0.31114,0.28820999999999997,0.22024000000000002,0.26443,0.38137,0.46466,0.60661,0.6502600000000001,0.50636,0.39942,0.33802,0.29916,0.34226999999999996,0.36727,0.26879000000000003,0.25761,0.34,0.34598,0.34131,0.46761,0.35804,0.36018,0.48668999999999996,0.39136,0.54367,0.80155,0.9727899999999999,0.94704,1.1331,1.3727,1.7331,2.0774,1.9415,2.0671,1.9659,1.7493,1.5261,1.1552,1.0691,0.7218399999999999,0.5485300000000001,0.10818,-0.14292,-0.26450999999999997,-0.37677,-0.35424,-0.20605,-0.28398,-0.4107,-0.41723999999999994,-0.49328999999999995,-0.29262,-0.39461999999999997,-0.34178000000000003,-0.23210999999999998,-0.35916,-0.2781,0.083357,0.48795,1.0581,1.0965,0.72558,0.34456,-0.70565,-1.3967,-1.5983,-1.1323,-0.5263800000000001,-0.49186,-2.2005
2,0.49845,-0.9208700000000001,-1.3175,-2.495,-2.8262,-3.2853,-3.1797,-2.8293,-1.9825,-1.1888,-0.8886799999999999,-0.64265,-0.49406000000000005,-0.29856,0.15209,0.59037,0.7401300000000001,0.7279100000000001,0.7383,0.72765,0.63534,0.54465,0.5242899999999999,0.58397,0.62071,0.61563,0.61907,0.53293,0.49421000000000004,0.62864,0.64732,0.5916100000000001,0.6137100000000001,0.6106199999999999,0.65357,0.56557,0.45665,0.45193999999999995,0.4066,0.43078999999999995,0.39163000000000003,0.34276,0.34287,0.35026,0.38632,0.32477,0.26774000000000003,0.30245,0.25503000000000003,0.15307,0.13460999999999998,0.10917,0.068752,0.058311,0.015771,-0.0035924,-0.041770999999999996,-0.09754700000000001,-0.016993,-0.0069185,-0.13080999999999998,-0.10482000000000001,-0.073476,-0.066962,-0.025854000000000002,-0.1084,-0.07366,-0.063873,-0.12904000000000002,-0.12,-0.16766,-0.062088,0.082324,0.092468,0.20065999999999998,0.27229000000000003,0.22413000000000002,0.32399,0.37069,0.28369,0.3556,0.40986000000000006,0.3598,0.38255,0.4209,0.4778,0.46053999999999995,0.48296999999999995,0.52105,0.47591000000000006,0.53914,0.54715,0.5888100000000001,0.61662,0.59634,0.58519,0.44206999999999996,0.47508999999999996,0.61247,0.5383600000000001,0.51832,0.57076,0.52303,0.55647,0.58748,0.55051,0.56913,0.6592600000000001,0.63261,0.52256,0.6346,0.7427,0.7689600000000001,0.72829,0.6078600000000001,0.61398,0.53301,0.34381,0.29612,0.36995,0.35198,0.31458,0.33571,0.20540999999999998,0.13792000000000001,0.088786,0.19627,0.50925,0.44437,0.16555,-0.13613,-0.7440899999999999,-1.2698,-2.0039,-2.8597,-3.6249,-4.2813,-2.8717,-2.9436,-0.34617
1,1.0515,-1.4144,-3.8155,-4.6362,-4.2405,-3.4465,-2.1348,-1.4856,-1.3491,-0.49425,-0.16698,-0.20245,-0.16219,-0.10427,-0.04148,-0.079928,-0.055012,-0.14519,-0.16302,-0.2213,-0.24946,-0.29381,-0.33189,-0.33662,-0.36004,-0.3867,-0.51007,-0.54062,-0.5559,-0.59565,-0.68287,-0.79183,-0.81798,-0.8283200000000001,-0.7699199999999999,-0.8923399999999999,-0.89715,-0.81009,-0.8331799999999999,-0.75595,-0.63475,-0.50475,-0.35161,-0.38816999999999996,-0.32009,-0.14467,-0.081789,-0.081208,0.073867,0.12045,0.068718,0.093047,0.10733,0.11397,0.11748,0.14248,0.18539,0.17945999999999998,0.20338,0.12809,0.17123,0.29730999999999996,0.29147,0.34154,0.35329,0.35821,0.47145,0.49591999999999997,0.60039,0.5009100000000001,0.5733199999999999,0.66955,0.72737,0.61936,0.62208,0.59829,0.5677300000000001,0.51458,0.5579999999999999,0.55737,0.56307,0.42513,0.40068000000000004,0.37131,0.31155,0.38803000000000004,0.35675,0.30629,0.29662,0.11465,0.2283,0.30446999999999996,0.23656,0.26283,0.39121,0.49509,0.5831,0.74444,0.96665,1.1025,1.3997,1.6479,1.8619999999999999,1.7618,1.7539,1.6177,1.3884,1.0957,0.9052100000000001,0.60027,0.17176,-0.25526,-0.38986,-0.43868,-0.5013,-0.51167,-0.52473,-0.49103,-0.47581999999999997,-0.52581,-0.48094,-0.6251,-0.57987,-0.44478999999999996,-0.41495,-0.48063999999999996,-0.43749,-0.39242,-0.090462,0.43728,0.7576,0.71646,0.88941,1.1347,1.2541,1.1051,1.253,1.903,2.089,0.09927899999999999
1,-0.35314,-2.7596,-3.963,-4.4406,-4.5339,-3.6587,-2.3504,-1.8572,-1.3858,-0.56655,-0.50413,-0.43293000000000004,-0.45731000000000005,-0.44356,-0.5039899999999999,-0.41768999999999995,-0.39515,-0.41336999999999996,-0.46426000000000006,-0.44115,-0.46124,-0.48591999999999996,-0.42191000000000006,-0.49153,-0.50479,-0.59923,-0.55024,-0.60136,-0.6491100000000001,-0.66692,-0.68688,-0.71824,-0.83249,-0.80658,-0.81984,-0.7863,-0.72529,-0.77582,-0.63849,-0.63394,-0.57917,-0.46924,-0.3857,-0.36573,-0.24613000000000002,-0.1471,-0.098492,-0.014322,-0.026772000000000004,0.017731999999999998,0.03948,0.007198100000000001,-0.015834,0.068381,0.13585999999999998,0.13422,0.11815999999999999,0.19432,0.15335,0.076873,0.2628,0.20419,0.27307,0.22571999999999998,0.26669,0.39309,0.42554,0.43473999999999996,0.48698,0.57516,0.58178,0.5856,0.731,0.66668,0.64556,0.70509,0.68925,0.7353,0.63241,0.7212,0.6518,0.67485,0.7129300000000001,0.56712,0.48652,0.55679,0.56943,0.5564600000000001,0.50403,0.49046000000000006,0.42241000000000006,0.39181,0.38278,0.46058000000000004,0.39676,0.3835,0.43165,0.41071,0.53313,0.5874,0.5180100000000001,0.5769,0.82004,0.9383600000000001,1.0556,1.1344,1.4008,1.6749,1.6734,1.2812,1.0052,0.9656799999999999,0.89735,0.8979299999999999,0.70416,0.48068,0.049753,-0.07709500000000001,-0.043615,-0.12208,-0.027756,0.051596,-0.022757,-0.0019096,0.027173000000000003,0.050088,0.064223,0.08744500000000001,0.14775,0.22749,0.79204,1.6527,1.7262,1.2392,0.82339,0.33394,0.17035,0.016252000000000003,0.9506600000000001,0.049003
1,-1.6236,-3.3998,-3.6765,-4.2359,-3.9281,-3.1069999999999998,-2.1689,-1.507,-1.3911,-0.7830699999999999,-0.45446000000000003,-0.48043,-0.37838,-0.21871999999999997,-0.46046000000000004,-0.37151,-0.26634,-0.4151,-0.5118699999999999,-0.5567,-0.40309,-0.40353,-0.32355,-0.46721,-0.48755,-0.46671999999999997,-0.36796999999999996,-0.34876,-0.5026,-0.5446,-0.39696,-0.40901,-0.5223300000000001,-0.5695,-0.44796,-0.42796999999999996,-0.41467,-0.20869000000000001,-0.12153,-0.23345,-0.3091,-0.10471,-0.065849,-0.1197,-0.067256,-0.051351999999999995,0.014459999999999999,0.014593,0.087652,0.18129,0.26607,0.089541,0.12815,0.1163,0.18765,0.17704,0.14369,0.11225,0.15267999999999998,0.13514,0.09475499999999999,0.2275,0.16860999999999998,0.077687,0.16685999999999998,0.19219,0.20904,0.31544,0.33199,0.21248000000000003,0.22739,0.21281999999999998,0.21731999999999999,0.32386,0.49253,0.44661000000000006,0.45724,0.5251899999999999,0.36266,0.42062,0.69281,0.60682,0.54877,0.4985,0.5354899999999999,0.52786,0.41503999999999996,0.51441,0.52922,0.46416,0.40907,0.45463000000000003,0.44188999999999995,0.59105,0.83305,0.8896799999999999,0.86472,0.6745,1.0423,1.3543,1.6953,1.9978,2.1847,2.1818,1.9133,1.7732,1.7903,1.3947,0.9955299999999999,0.64865,0.36427,0.22127,0.064669,-0.1876,-0.040154,-0.0091515,-0.26234,-0.27695,-0.11145999999999999,-0.077797,-0.093049,-0.13828,-0.25098000000000004,-0.24753000000000003,-0.09332,-0.046039,-0.10057,0.053832000000000005,0.33046,0.8275100000000001,1.4626,1.5202,1.2698,0.75959,0.44218999999999997,-0.11545,-0.6816300000000001,-0.8646799999999999,-0.44253000000000003,-1.5092
1,-0.13826,-3.0752,-4.4693,-4.3486,-3.9793,-2.9225,-1.8483,-1.4964,-1.0079,-0.26992,-0.25986,-0.27766,-0.2564,-0.24073000000000003,-0.23751999999999998,-0.24903000000000003,-0.18466,-0.28501,-0.33105,-0.35583000000000004,-0.33359,-0.44828,-0.40035,-0.32921999999999996,-0.48581,-0.50136,-0.5109899999999999,-0.60133,-0.5572699999999999,-0.59734,-0.75341,-0.74995,-0.77475,-0.8532799999999999,-0.85024,-0.823,-0.74257,-0.9505100000000001,-0.83578,-0.6956,-0.7255199999999999,-0.59636,-0.49565,-0.39331,-0.32629,-0.23524,-0.24008000000000002,-0.15334,-0.11273,-0.08118500000000001,-0.10421,-0.034476,0.012235,-0.0070725,0.093328,0.040729,0.12539,0.13514,0.096039,0.070658,0.12385999999999998,0.24003000000000002,0.14353,0.21921999999999997,0.28656,0.26150999999999996,0.32345999999999997,0.40608,0.39386,0.46631000000000006,0.5011399999999999,0.53814,0.6077600000000001,0.64162,0.64951,0.613,0.5393399999999999,0.67974,0.59805,0.5599,0.51803,0.55874,0.43255,0.4608,0.56034,0.53284,0.41778000000000004,0.50559,0.3863,0.40434000000000003,0.46399999999999997,0.40629,0.5031800000000001,0.42061000000000004,0.465,0.42977,0.49708,0.49673999999999996,0.57921,0.97975,1.2233,1.28,1.3952,1.6606,1.9279,1.9147,1.8015,1.6786,1.4401,1.274,1.0705,0.66184,0.3534,0.036911,-0.14405,-0.1815,-0.11408,-0.14381,-0.08582200000000001,-0.10484,-0.17324,-0.21514,-0.13869,-0.13822,-0.15056,-0.11212000000000001,-0.10944000000000001,-0.074525,0.01459,0.20798000000000003,0.78341,1.1792,1.1937,1.186,0.98719,0.68892,0.77437,0.82394,1.1172,-1.6405
1,-0.7616,-2.9212,-3.8943,-4.385,-4.0682,-3.5111,-2.5328,-1.6874,-1.3981,-0.8992899999999999,-0.53767,-0.48198,-0.53338,-0.52247,-0.49308,-0.53052,-0.4478,-0.4646,-0.38506,-0.48943000000000003,-0.42491999999999996,-0.4413,-0.3754,-0.45228999999999997,-0.40673000000000004,-0.41977,-0.47985,-0.45911,-0.45683,-0.4801,-0.5878,-0.57426,-0.55425,-0.62052,-0.59482,-0.61261,-0.64767,-0.56024,-0.63741,-0.63461,-0.51852,-0.50397,-0.36189,-0.29905,-0.26718000000000003,-0.19419,-0.1924,-0.07131699999999999,-0.053524,-0.029567000000000003,0.047021,0.004021,0.055047000000000006,0.043361000000000004,0.023563,0.019543,0.013656,0.084049,0.090896,0.12222999999999999,0.16285,0.082302,0.23661999999999997,0.18365,0.18978,0.2095,0.20935,0.20315999999999998,0.33178,0.32241,0.38639,0.40865999999999997,0.3893,0.53046,0.54518,0.5839,0.6360100000000001,0.6972,0.5875600000000001,0.6490199999999999,0.63839,0.59604,0.55778,0.54128,0.55902,0.53777,0.52053,0.44366000000000005,0.54494,0.52231,0.50769,0.49368999999999996,0.4864,0.47171,0.5022,0.68602,0.8133600000000001,0.9257700000000001,1.03,1.1044,1.3857,1.5812,1.7173,1.7044,1.6705,1.5924,1.4331,1.2461,1.0479,0.80276,0.50358,0.31897,-0.012006999999999999,-0.042841000000000004,-0.10770999999999999,-0.161,-0.20357999999999998,-0.14438,-0.14597000000000002,-0.20486,-0.16471,-0.17972,-0.17908,-0.15822,-0.1227,-0.10997,-0.084733,-0.047362,0.21756999999999999,0.58298,1.0009,1.0731,1.2425,1.4496,1.3797,1.0681,0.7460600000000001,0.84905,1.1621,-0.38126
1,-0.8820899999999999,-2.5598,-3.4411,-3.9718,-3.7537,-3.2507,-2.0555,-1.4780000000000002,-1.4066,-0.86613,-0.5666100000000001,-0.536,-0.48003999999999997,-0.47648999999999997,-0.52645,-0.5370699999999999,-0.48678,-0.52022,-0.5361600000000001,-0.4797,-0.58558,-0.55381,-0.53895,-0.56263,-0.56635,-0.63873,-0.63534,-0.67557,-0.72405,-0.7142,-0.71996,-0.81304,-0.76367,-0.87041,-0.8872899999999999,-0.89607,-0.97845,-0.8907,-0.8966299999999999,-0.8442700000000001,-0.7576,-0.8096899999999999,-0.7602,-0.54862,-0.56096,-0.41,-0.45758000000000004,-0.37323,-0.23851,-0.23525,-0.14254,-0.17135999999999998,-0.10727,-0.045370999999999995,-0.14203,-0.11070999999999999,-0.0033954000000000002,-0.028756,-0.056162000000000004,-0.053788,-0.021629,0.012791,-0.018584,0.070647,0.044631,0.037295,0.14685,0.12680999999999998,0.12867,0.18744,0.15319000000000002,0.20609,0.26666999999999996,0.32211999999999996,0.35781999999999997,0.35456,0.3644,0.3867,0.46517,0.41746000000000005,0.48336,0.39045,0.46376999999999996,0.48803,0.4356,0.46156,0.46756000000000003,0.43376000000000003,0.44545,0.45269,0.51431,0.52244,0.65575,0.8807299999999999,0.9474799999999999,1.0799,1.176,1.3016,1.4879,1.6819,1.696,1.7252,1.6626,1.5759999999999998,1.4616,1.3492,1.205,1.0351,0.78515,0.51008,0.26534,0.243,0.23213000000000003,0.28601,0.22901,0.23295,0.26557,0.23901,0.2889,0.27991,0.19755,0.29263,0.36772,0.2758,0.31396,0.30818,0.52468,0.89318,1.1695,1.2141,1.1555,1.0908,1.1137,1.1185,1.2845,1.3931,1.6391,1.3394,0.54068,-1.0001
2,-0.73344,-1.4464,-1.9572,-2.3624,-2.3727,-2.0954,-1.6353,-1.1626,-0.92027,-0.8196200000000001,-0.6401399999999999,-0.28657,-0.13115,-0.13288,-0.16180999999999998,-0.17193,-0.21481999999999998,-0.15938,-0.14878,-0.16998,-0.15892,-0.11185,-0.17514000000000002,-0.16544,-0.17859,-0.18800999999999998,-0.22205,-0.21729,-0.19716,-0.18875999999999998,-0.24294000000000002,-0.23815999999999998,-0.21365,-0.26811,-0.29083000000000003,-0.2516,-0.30254000000000003,-0.34454,-0.35767,-0.36138000000000003,-0.32241,-0.34321999999999997,-0.37942,-0.40807,-0.38748,-0.4052,-0.46437,-0.43793999999999994,-0.37842,-0.37675,-0.41923999999999995,-0.32156999999999997,-0.33204,-0.29475,-0.22646,-0.25437,-0.18865,-0.19478,-0.087538,-0.13487000000000002,-0.071978,-0.0084675,-0.072586,-0.046866000000000005,-0.022947,-0.061661,-0.093136,-0.033927,-0.065954,-0.065943,-0.040629000000000005,-0.05107,-0.005375100000000001,-0.038215,-0.02556,-0.059860000000000003,-0.03961,-0.052443,-0.056951999999999996,-0.012587000000000001,0.01976,0.008778600000000001,0.032570999999999996,0.0106,0.032324,-0.0047322,0.023978,0.099469,0.12957,0.12312000000000001,0.18534,0.20305,0.24028000000000002,0.20558,0.17887,0.20854,0.25735,0.27581999999999995,0.26158000000000003,0.29824,0.29331,0.25226,0.21161999999999997,0.23119,0.28013000000000005,0.34025,0.38871999999999995,0.39508000000000004,0.43392,0.5852,0.6953,0.77493,0.9905700000000001,1.0825,1.1105,1.2789,1.4841,1.6985,1.7728,1.8969999999999998,2.0195,2.2249,2.4135,2.5462,2.6835,2.8339,2.763,2.3633,2.0188,1.6646,0.74747,-0.048997000000000006,-0.44319,-0.66071,-0.77854,-1.2766,-2.0504,-2.6305,-2.8544,-2.8416
2,-2.4812,-3.0137,-2.9498,-2.8886,-2.6524,-2.0874,-1.3915,-0.9500799999999999,-0.77578,-0.6419600000000001,-0.33774,0.047725,0.20122,0.20189000000000001,0.12859,0.12357,0.17397,0.081362,0.18899999999999997,0.20759,0.12068,0.15414,0.2025,0.16677999999999998,0.16776,0.17381,0.10315999999999999,0.10722000000000001,0.15855999999999998,0.087965,0.068763,0.12183,0.12095,0.11208,0.081099,0.05549,0.020141,0.041533999999999995,0.032884,0.023587999999999998,0.035019,0.023441999999999998,0.063493,-0.030297,0.0019195999999999998,-0.023961,-0.042555,-0.013106999999999999,-0.0032883,-0.054921000000000005,-0.082977,-0.070549,-0.058848000000000004,0.0023945999999999998,0.019422,-0.026406,-0.0024374,0.035283999999999996,0.059476999999999995,0.12215999999999999,0.11045,0.10955999999999999,0.14587999999999998,0.22364,0.22941,0.30244,0.32848,0.31431,0.37472,0.3773,0.41706000000000004,0.39352,0.44808000000000003,0.43463999999999997,0.44538,0.52062,0.47284,0.47836000000000006,0.46228,0.50678,0.56583,0.50155,0.51237,0.56008,0.5433399999999999,0.5315300000000001,0.59554,0.52067,0.61737,0.62949,0.682,0.6281,0.6715899999999999,0.7299100000000001,0.66587,0.69107,0.7206100000000001,0.81929,0.76288,0.80598,0.82024,0.8400700000000001,0.80778,0.80303,0.8320200000000001,0.8693799999999999,0.8628899999999999,0.88423,0.93145,0.8687299999999999,0.8549700000000001,0.86766,0.78495,0.74767,0.80896,0.7855,0.8555,0.77058,0.7410899999999999,0.68809,0.4977,0.36751,0.31716,0.3711,0.35401,0.1478,0.051644,-0.21339,-0.26054,-0.1234,-0.10697999999999999,-0.18857000000000002,-0.67408,-1.286,-1.9021,-2.7538,-3.8744,-4.2968,-3.5243,-2.4372
2,-0.65667,-1.1873,-1.2824,-1.8533,-2.0536,-2.1913,-2.0816,-1.8419999999999999,-1.5421,-1.0746,-0.70302,-0.56819,-0.47913,-0.24969,0.090941,0.37311,0.39605999999999997,0.38448000000000004,0.46553999999999995,0.37746999999999997,0.40708,0.52684,0.46808999999999995,0.45626000000000005,0.42521000000000003,0.40131999999999995,0.43778999999999996,0.43915,0.43917,0.43676000000000004,0.46538999999999997,0.4672,0.42633000000000004,0.40473000000000003,0.43432,0.47867,0.4454,0.4582,0.46475,0.40394,0.43295,0.42908999999999997,0.38335,0.39689,0.38299999999999995,0.37006,0.40018000000000004,0.41561000000000003,0.42907,0.38378,0.33739,0.38411999999999996,0.37196,0.33355,0.30345,0.26557,0.30219,0.35118,0.33462,0.26144,0.27097,0.34247,0.32425,0.2774,0.26793,0.31014,0.31005,0.24955,0.27558,0.30052,0.2768,0.36411,0.37605,0.30215,0.36363,0.32576,0.29309,0.40168000000000004,0.38097,0.33314,0.40589000000000003,0.49867,0.57143,0.5938100000000001,0.59328,0.61426,0.56825,0.53578,0.57821,0.6371100000000001,0.70887,0.73242,0.72473,0.70053,0.67066,0.58838,0.51863,0.6117600000000001,0.6584,0.68134,0.70845,0.6140899999999999,0.61095,0.66783,0.69586,0.74763,0.78383,0.78495,0.76384,0.79081,0.82629,0.7820600000000001,0.64465,0.45682,0.37124,0.43795,0.47661000000000003,0.4321,0.34798,0.20099,0.039161,-0.15162,-0.33247,-0.40196,-0.52866,-0.80485,-1.0587,-1.3597,-1.8702,-2.4484,-2.9454,-3.4182,-3.8007,-3.9696,-3.5138,-2.5340000000000003,-1.4861,-0.46269,-0.3402,0.22571
1,-0.035942,-0.2782,-0.38375,-0.37272,-0.13322,-0.27699,-0.42173,-0.34689000000000003,-0.17849,-0.23167,-0.33658000000000005,-0.36185,-0.39473,-0.27869,-0.43283,-0.47155,-0.25778,-0.22121999999999997,-0.50989,-0.61322,-0.5272899999999999,-0.42311000000000004,-0.3533,-0.43583999999999995,-0.47466,-0.56082,-0.62984,-0.32,-0.16477,-0.12717,-0.25424,-0.38168,-0.18104,-0.07914700000000001,0.0055062,0.17496,0.056962,0.15747,0.19107000000000002,0.10365999999999999,0.081361,-0.00043422,0.083364,0.26658000000000004,0.19222999999999998,0.068638,-0.039912,-0.010878,0.084594,0.11325,0.3154,0.04852,-0.057954,0.13752999999999999,0.28043,0.096707,0.016028,0.08250199999999999,0.25014000000000003,0.4153,0.5167,0.57008,0.52925,0.62179,0.65385,0.68989,0.66759,0.76422,0.75545,0.61065,0.53165,0.56035,0.48818999999999996,0.6198199999999999,0.6893100000000001,0.5189199999999999,0.50862,0.5373,0.83562,1.0504,1.0521,1.0422,1.324,1.5726,1.8367,2.1411,2.0525,1.9748,1.9915,1.7878,1.3902,1.0999,0.82332,0.69379,0.37016,0.10350999999999999,-0.15145999999999998,-0.30923,-0.32556,-0.29673,-0.42837,-0.27819,-0.31271,-0.36019,-0.33416,-0.25913,-0.073196,-0.29170999999999997,-0.49868999999999997,-0.41436000000000006,-0.11854,0.33293,0.86439,1.1097,0.88892,0.93934,0.99555,0.80676,0.5131600000000001,0.1059,0.47616,0.68152,-0.16726,-1.6829,-2.7098,-3.4355,-4.2796,-4.29,-3.6476,-2.2284,-1.6046,-1.4704,-0.69271,-0.4705,-0.45415,-0.34408,-0.41213,-0.41675,-0.24738000000000002,-0.34629
2,0.39099,-0.94011,-2.0648,-2.7825,-2.9711,-3.0082,-2.9003,-2.6338,-2.1991,-1.5558,-1.0686,-0.8155100000000001,-0.6814,-0.60802,-0.27974,0.14272,0.35402,0.40581999999999996,0.34412,0.31534,0.3704,0.37184,0.39786,0.41575,0.37385,0.37637,0.36888000000000004,0.38753000000000004,0.43711000000000005,0.39528,0.42538000000000004,0.44425,0.38415,0.41378000000000004,0.38085,0.32591,0.35369,0.32495,0.28076999999999996,0.29306,0.32923,0.35700000000000004,0.26888,0.19092,0.24186,0.29672,0.23369,0.12666,0.13455999999999999,0.16777,0.13424,0.013371000000000001,0.05631799999999999,0.1861,0.060792,-0.022402000000000002,-0.014493,-0.0193,-0.030063999999999997,-0.092171,-0.12367,-0.12561,-0.10455999999999999,-0.10385,-0.099412,-0.13783,-0.11155999999999999,-0.039391,-0.11792000000000001,-0.049035,0.014916,-0.02866,0.044298000000000004,0.10494,0.12265,0.14598,0.23321,0.27921,0.27195,0.34836999999999996,0.43216000000000004,0.45291000000000003,0.46366,0.49831000000000003,0.53364,0.5997399999999999,0.63836,0.6181,0.62084,0.59821,0.62859,0.71403,0.77412,0.77978,0.70704,0.6924600000000001,0.71443,0.74525,0.83454,0.83425,0.78213,0.8332299999999999,0.8663700000000001,0.86435,0.86405,0.8689100000000001,0.8595799999999999,0.78551,0.81419,0.94405,0.9630299999999999,0.94949,0.9712,0.9675,0.96936,0.9403299999999999,0.88169,0.73677,0.60468,0.54919,0.57627,0.66559,0.53798,0.39758000000000004,0.2451,0.06080700000000001,-0.053877,-0.068945,0.06984,-0.11307,-0.35785,-0.77228,-1.2982,-1.8341,-2.6056,-3.1413,-3.7178,-3.2253,-2.4696,-0.90061
2,-0.82599,-1.2157,-1.072,-1.449,-1.4649,-1.5219999999999998,-1.7422,-1.7808,-1.8055,-1.7057,-1.4409,-1.097,-0.71885,-0.45526000000000005,-0.33985,-0.28338,-0.17547000000000001,0.015994,0.19937,0.29614,0.324,0.34415999999999997,0.38946,0.40497,0.40149,0.42213999999999996,0.37667,0.3259,0.37806,0.40233,0.39265,0.40515999999999996,0.40335,0.41999,0.40768000000000004,0.37829,0.39675,0.36091999999999996,0.34767,0.40371999999999997,0.39083,0.38322,0.40939000000000003,0.39333,0.38422,0.36519,0.35572,0.38961,0.3756,0.33752,0.35999000000000003,0.37995999999999996,0.37203,0.39299999999999996,0.38735,0.36309,0.39283,0.37171,0.34102,0.40559,0.42418999999999996,0.39637,0.37582,0.33124000000000003,0.34288,0.37177,0.36517,0.37063,0.33978,0.33632,0.40476,0.43437,0.42583000000000004,0.41643,0.4298,0.47707,0.47928000000000004,0.47744,0.52164,0.5212399999999999,0.51968,0.59802,0.62303,0.53999,0.51403,0.57563,0.5827,0.55581,0.58402,0.58523,0.53133,0.52566,0.54196,0.5213,0.5102300000000001,0.51917,0.52783,0.5233300000000001,0.52091,0.53503,0.5090399999999999,0.48471000000000003,0.51874,0.51575,0.49643999999999994,0.51063,0.5128699999999999,0.50698,0.47106000000000003,0.46871,0.5583600000000001,0.56067,0.48018999999999995,0.45882,0.41793,0.32324,0.24564,0.21803000000000003,0.2832,0.41345,0.51175,0.53895,0.52932,0.48241999999999996,0.33701,0.13601,0.011156000000000001,-0.040982,-0.10764000000000001,-0.27910999999999997,-0.62859,-0.9711799999999999,-1.5122,-2.0502,-2.3727,-3.3237,-3.8152,-4.0828,-5.2341,-2.9129
1,-1.1813,-2.303,-2.8691,-3.9477,-4.5017,-4.1726,-2.8633,-1.8925,-1.6619,-0.90185,-0.42296000000000006,-0.35217,-0.31961999999999996,-0.36245,-0.32147,-0.31601999999999997,-0.3024,-0.29279,-0.31629,-0.37401999999999996,-0.40876999999999997,-0.37756,-0.45879,-0.32973,-0.35043,-0.39057,-0.37661999999999995,-0.4935,-0.53218,-0.52084,-0.52684,-0.58828,-0.70819,-0.58291,-0.6705,-0.69653,-0.6006600000000001,-0.66001,-0.55898,-0.50964,-0.48078999999999994,-0.43953000000000003,-0.2317,-0.27487,-0.1358,-0.045989,-0.03775,-0.024957,0.041773000000000005,0.094939,0.036344,0.07978400000000001,-0.010793,-0.020771,0.062472,0.052275,0.034358,0.07634400000000001,0.11035999999999999,0.15903,0.15519000000000002,0.08453,0.14620999999999998,0.18894,0.17281,0.22757,0.34337,0.35085,0.37532,0.50768,0.52078,0.50579,0.62816,0.60065,0.61151,0.76158,0.7279100000000001,0.71032,0.72545,0.72429,0.6995,0.63138,0.6544,0.64315,0.5524,0.55395,0.49973,0.48832,0.54464,0.46807,0.4569,0.34836999999999996,0.39455,0.37838,0.44911,0.44913000000000003,0.47118999999999994,0.6028399999999999,0.72805,0.95745,0.98208,1.1941,1.3257,1.5597,1.8183,1.7785,1.7723,1.4862,1.2911,1.1543,0.9455,0.70445,0.37119,0.12274000000000002,-0.16343,-0.23603000000000002,-0.25884,-0.21934,-0.23624,-0.26963000000000004,-0.27091,-0.24566,-0.24686,-0.28418000000000004,-0.29291,-0.24889,-0.23173000000000002,-0.21391,-0.13051,-0.0025714,0.5272,1.3252,1.3793,1.5431,1.7885,1.5066,0.7741100000000001,-0.13012,-0.28586999999999996,-0.45101
2,1.3115,1.0901,0.59718,0.0087108,-0.45931000000000005,-0.88489,-1.1013,-1.3327,-1.5896,-1.5655,-1.3313,-0.9916299999999999,-0.6251899999999999,-0.40795,-0.28331,-0.19877999999999998,-0.03664,0.30305,0.54728,0.59665,0.60727,0.5584,0.52152,0.60502,0.59163,0.48746000000000006,0.51877,0.56997,0.58827,0.56713,0.54255,0.5955,0.5745600000000001,0.55377,0.5585100000000001,0.5354399999999999,0.5184,0.4841,0.49727,0.4909,0.43368999999999996,0.40406,0.4533,0.4858,0.41822,0.40588,0.39741,0.42801000000000006,0.4574,0.33537,0.29908,0.34067,0.34526999999999997,0.27938,0.23385999999999998,0.27018000000000003,0.24139000000000002,0.22157,0.20506,0.2686,0.2723,0.10011,0.086734,0.098622,0.061264,0.056531,0.037945,0.039171,-0.019459,-0.069914,-0.023412,-0.030307,-0.028276,0.019811000000000002,-0.014309,0.021894999999999998,0.10468,0.11767999999999999,0.11669000000000002,0.11663,0.16308,0.21161,0.22021,0.28715999999999997,0.30403,0.31251999999999996,0.41771,0.39964,0.42088000000000003,0.5141,0.46266999999999997,0.44665,0.48315,0.48505,0.54581,0.50931,0.5280100000000001,0.59578,0.48995,0.52074,0.5361,0.53875,0.58122,0.5622199999999999,0.64861,0.65208,0.64146,0.7090000000000001,0.70596,0.6725300000000001,0.65596,0.6941,0.74951,0.68942,0.62983,0.6380100000000001,0.63694,0.61292,0.41945,0.24950999999999998,0.33376999999999996,0.3321,0.16338,0.024294,-0.16293,-0.33871,-0.59449,-0.9526399999999999,-1.0597,-1.14,-1.4477,-1.7715,-2.0513,-2.6761,-3.1393,-3.4488,-4.1252,-4.0337,-4.4668,-2.5874
1,-0.9202100000000001,-2.4495,-3.1919999999999997,-3.8752,-4.1807,-3.8922,-3.1562,-2.0226,-1.5201,-1.1702,-0.59172,-0.39648,-0.41005,-0.44188,-0.41733000000000003,-0.42306000000000005,-0.31273,-0.30414,-0.30353,-0.34485,-0.3215,-0.22451,-0.35551,-0.24303000000000002,-0.31106999999999996,-0.39435,-0.34915,-0.33716999999999997,-0.425,-0.33987,-0.31568,-0.37499,-0.37464000000000003,-0.46718999999999994,-0.38971,-0.33763000000000004,-0.42568,-0.25256999999999996,-0.34635,-0.2278,-0.1819,-0.17013,-0.075184,-0.05511799999999999,0.057977999999999995,-0.030612,0.09354,0.10651,0.18256,0.17340999999999998,0.15275,0.17928,0.12103,0.16949,0.10872000000000001,0.16638,0.1449,0.20499,0.19213,0.11083,0.16702999999999998,0.14104,0.1708,0.22293000000000002,0.26776,0.31808000000000003,0.2664,0.32931,0.37284,0.36189,0.42513999999999996,0.53366,0.41462,0.53391,0.51905,0.53886,0.5925,0.5331100000000001,0.5403899999999999,0.64967,0.61521,0.52459,0.46795,0.52266,0.53384,0.50274,0.49962,0.38648000000000005,0.38633,0.49503,0.428,0.40712,0.47529,0.49998000000000004,0.69165,0.8456600000000001,1.0554,1.1936,1.2772,1.4663,1.6674,1.9156,1.9281,1.864,1.8671,1.6941,1.4755,1.3197,1.0657,0.8976700000000001,0.6771199999999999,0.24714,0.049677,-0.086539,-0.1349,-0.17309000000000002,-0.17089000000000001,-0.1081,-0.16925,-0.15074,-0.09864099999999999,-0.095394,-0.17335,-0.17934,-0.20346,-0.16022,-0.11142,-0.033919,0.27296,0.80907,1.4303,1.3467,0.9981899999999999,0.23454,-0.62493,-1.1341,-1.2636,-0.9642700000000001,-0.37083,-1.0405
2,0.62292,-0.060383000000000006,-0.54964,-1.2992,-1.8265,-2.3419,-2.7002,-2.6461,-2.3834,-2.0298,-1.6492,-1.1740000000000002,-0.67661,-0.44958000000000004,-0.46241000000000004,-0.3515,0.034983999999999994,0.34231999999999996,0.38097,0.45843,0.5315,0.46156,0.48336999999999997,0.52299,0.48746999999999996,0.49173,0.4821,0.48011000000000004,0.49454,0.49125,0.53432,0.55669,0.54902,0.54851,0.5098,0.47553,0.47913999999999995,0.51171,0.55208,0.5089899999999999,0.43273,0.41802,0.43445,0.43021000000000004,0.37022,0.32305,0.33981999999999996,0.34505,0.34765,0.33902,0.29339,0.28572,0.27331,0.20169,0.21815,0.27953,0.17912999999999998,0.098506,0.13702999999999999,0.079623,0.038120999999999995,0.095207,0.1011,0.08595499999999999,0.076647,0.090581,0.11807000000000001,0.09105,0.095492,0.15382,0.13658,0.11855999999999998,0.20521,0.25787,0.26937,0.34329,0.39192,0.44838,0.51312,0.49745,0.50822,0.5411699999999999,0.55132,0.5954699999999999,0.63561,0.6974600000000001,0.75869,0.72752,0.68284,0.68948,0.72617,0.77042,0.7522300000000001,0.67901,0.6976600000000001,0.81909,0.8585799999999999,0.7706,0.71436,0.76846,0.80902,0.74234,0.69501,0.71618,0.71807,0.737,0.78992,0.79089,0.77262,0.78413,0.7489600000000001,0.61407,0.46643999999999997,0.38422,0.35674,0.36346999999999996,0.38216,0.36074,0.29172,0.19910999999999998,0.086976,-0.019334999999999998,-0.048237,-0.004729,-0.030470999999999998,-0.22779000000000002,-0.54277,-0.9483299999999999,-1.4662,-2.0029,-2.4707,-2.8274,-3.2666,-3.648,-3.4541,-2.9610000000000003,-2.0776,-1.0101,-0.61437,0.52065
4,1.5623,-0.51105,-2.4995,-3.9049,-4.1488,-3.7252,-3.1714,-2.3601,-1.2830000000000001,-0.8056300000000001,-0.74615,-0.23773000000000002,0.3665,0.47505,0.34149,0.24763000000000002,0.33287,0.41173999999999994,0.37948000000000004,0.34486,0.33455,0.32765,0.34745,0.26502,0.22701999999999997,0.095277,0.038041000000000005,0.078138,0.1156,0.039120999999999996,-0.0046475,-0.14112,-0.23185,-0.19217,-0.28658,-0.25891,-0.38411999999999996,-0.44548999999999994,-0.51489,-0.60013,-0.52754,-0.63258,-0.71668,-0.70415,-0.75862,-0.80896,-0.7822100000000001,-0.80656,-0.95596,-0.81097,-0.65269,-0.52693,-0.48473999999999995,-0.48794,-0.48366000000000003,-0.42296999999999996,-0.42867,-0.20586,-0.28168000000000004,-0.1381,-0.078168,-0.047242,0.022407,0.1128,0.20579,0.24145999999999998,0.081174,-0.041843,-0.039236,0.047333,0.056294000000000004,0.017702000000000002,0.027512,0.048322000000000004,0.062009,0.07348400000000001,0.06899,0.13908,0.039928,0.10634,0.1567,0.23251999999999998,0.28421,0.3706,0.44616000000000006,0.55782,0.82531,0.9915799999999999,1.2858,1.5734,1.7091,1.8104,1.7917,1.5753,1.4505,1.2832,1.2275,1.3683,1.4381,1.4585,1.3495,1.1358,0.8554299999999999,0.53304,0.33666,0.26621999999999996,0.019784,-0.11135,-0.1608,-0.21604,-0.39437,-0.4194,-0.47936000000000006,-0.43517,-0.4986,-0.48518999999999995,-0.51302,-0.66995,-0.68176,-0.58628,-0.6036100000000001,-0.6653100000000001,-0.58746,-0.47081999999999996,-0.34489000000000003,0.10525,0.8629700000000001,0.8752200000000001,0.85403,0.81305,1.0472,1.2055,1.2581,1.0806,0.95286,1.2168,1.5283,1.3643,0.45093999999999995,-1.028
1,2.4029,2.0367,0.3409,-1.2864,-3.3015,-4.2246,-3.3983,-2.0793,-1.5979,-1.528,-0.075556,0.15018,-0.018965,0.15663,0.083514,0.05450599999999999,0.063978,-0.010487,-0.074014,-0.10897000000000001,-0.026492,-0.23756999999999998,-0.21215,-0.27713000000000004,-0.37903000000000003,-0.32254,-0.48713999999999996,-0.65077,-0.70535,-0.7066399999999999,-0.9259,-0.86621,-0.99841,-1.1268,-1.3522,-1.4066,-1.3555,-1.4577,-1.4997,-1.585,-1.4679,-1.3722,-1.3731,-1.2589,-1.089,-0.92281,-0.9173100000000001,-0.64988,-0.5736100000000001,-0.35839,-0.3687,-0.32218,-0.23476999999999998,-0.38168,-0.22551,-0.15689,-0.1099,-0.045662,0.057008,-0.004405,0.24536,0.086985,0.11545,0.22758,0.20257,0.26671999999999996,0.14089000000000002,0.37303000000000003,0.45446000000000003,0.42525,0.60888,0.40595,0.5653100000000001,0.5111899999999999,0.60685,0.54951,0.50974,0.78728,0.61515,0.53754,0.58858,0.58357,0.57534,0.47906000000000004,0.51444,0.58002,0.46947,0.38715,0.42923999999999995,0.46602,0.40644,0.32299,0.2049,0.17275,0.36359,0.1939,0.18450999999999998,0.18137,0.25997,0.24193,0.42827,0.23033,0.11847,0.17732,0.44047,0.44225,0.63562,1.1077,1.4458,1.4093,1.1878,1.1434,0.8911899999999999,0.71811,0.9045200000000001,0.83995,0.49346999999999996,0.12505,-0.30901999999999996,-0.32716,-0.26981,-0.21066,-0.22994,-0.2241,-0.21591999999999997,-0.23121999999999998,-0.10172,-0.1293,0.007368,-0.034076,0.11814000000000001,0.41608999999999996,1.115,0.8991600000000001,1.1545,1.9873,2.4287,2.614,1.9628,1.7692
1,0.44677,-1.5074,-3.1875,-4.5075,-4.6042,-3.6361,-2.3116,-1.5977,-1.3624,-0.66922,-0.17339000000000002,-0.20511999999999997,-0.23079000000000002,-0.17712,-0.23851,-0.20508,-0.23054000000000002,-0.20915999999999998,-0.29294000000000003,-0.25506999999999996,-0.25399,-0.35198,-0.42773999999999995,-0.46595,-0.46029,-0.47506000000000004,-0.44975,-0.56228,-0.53278,-0.6358,-0.63659,-0.74955,-0.80678,-0.69629,-0.8552799999999999,-0.8962600000000001,-0.9056700000000001,-0.90846,-0.8300799999999999,-0.8388399999999999,-0.69213,-0.64577,-0.48886999999999997,-0.40646,-0.35638000000000003,-0.22658000000000003,-0.20574,-0.071802,-0.066372,0.007502,0.030632,0.02097,0.033968,0.16489,0.083024,0.045058999999999995,-0.0047667000000000005,0.12382,0.10804000000000001,0.073936,0.11257,0.055673,0.12375,0.22033000000000003,0.23410999999999998,0.32279,0.21514,0.33897,0.33479000000000003,0.32808000000000004,0.5122800000000001,0.49877,0.60277,0.65328,0.68093,0.72841,0.68048,0.6405,0.6205,0.65801,0.71363,0.62167,0.48816000000000004,0.45528,0.42458,0.50447,0.42813,0.45083999999999996,0.44836000000000004,0.38991,0.39159,0.34957,0.41467,0.47231000000000006,0.56453,0.7350899999999999,0.79975,1.126,1.1641,1.2818,1.5527,1.6916,1.8828,1.7603,1.8259,1.6193,1.3949,1.1328,0.92835,0.5988399999999999,0.22924,-0.14470999999999998,-0.27007,-0.32319000000000003,-0.3496,-0.29816,-0.25184,-0.29194000000000003,-0.41335,-0.30745,-0.33083,-0.43238999999999994,-0.28993,-0.32493,-0.30929,-0.25256999999999996,-0.28259,-0.16934000000000002,0.25873,0.8966299999999999,1.0882,1.0013,1.2921,1.3787,1.0148,0.8207899999999999,1.0344,1.2584,0.96121,-0.9994799999999999
2,-1.1468,-1.8783,-2.2527,-2.4947,-2.5718,-2.4337,-2.2083,-1.8075,-1.2969,-1.0004,-0.9885200000000001,-0.73601,-0.44988,-0.36462,-0.3471,-0.34854,-0.33925,-0.28773000000000004,-0.31628,-0.30395,-0.35011,-0.31048000000000003,-0.30788000000000004,-0.28831999999999997,-0.3072,-0.31386,-0.2997,-0.34517,-0.30256,-0.35178000000000004,-0.34236,-0.37956999999999996,-0.34085,-0.31283,-0.3754,-0.38769000000000003,-0.38101999999999997,-0.37424,-0.40123000000000003,-0.38266999999999995,-0.38366,-0.41296000000000005,-0.40196,-0.36683000000000004,-0.41272,-0.41028000000000003,-0.40406,-0.35975999999999997,-0.36849,-0.32747,-0.33762,-0.3545,-0.30212,-0.24450999999999998,-0.24431999999999998,-0.22601999999999997,-0.15287,-0.12999000000000002,-0.1521,-0.15229,-0.10465,-0.14004,-0.14469,-0.14690999999999999,-0.08341599999999999,-0.088901,-0.081393,-0.06450299999999999,-0.090942,-0.14355,-0.17047,-0.13093,-0.090563,-0.10815999999999999,-0.1569,-0.11642000000000001,-0.13319,-0.11395999999999999,-0.10751,-0.099582,-0.08192100000000001,-0.10363,-0.074598,-0.043253,-0.014444,-0.040443,-0.027946,-0.093802,-0.030793,0.058707,0.016602000000000002,0.036573,0.035981,0.046885,0.058667,0.14081,0.10188,0.018386000000000003,0.046148,0.08002100000000001,0.14976,0.14185,0.14444,0.15979000000000002,0.19399,0.16958,0.14134000000000002,0.10794000000000001,0.18216,0.21986999999999998,0.28605,0.31222,0.32674000000000003,0.43859,0.57626,0.71348,0.8672,0.9879600000000001,1.0817,1.2634,1.4802,1.6652,1.8248,2.0091,2.2474,2.499,2.7913,2.855,2.9084,3.0184,2.9610000000000003,2.6023,2.0766,1.7005,1.2331,0.326,-0.35517,-0.7842,-1.248,-1.516
2,-0.7956300000000001,-1.334,-1.3964,-1.9076,-2.1439,-2.3553,-2.1016,-1.8439,-1.7429,-1.4607,-1.0635,-0.81013,-0.6083,-0.20965,0.19422,0.19519,-0.048401,-0.17259000000000002,-0.070164,0.1027,0.14461,0.021955000000000002,0.033527,0.1125,0.086263,0.10397999999999999,0.11547,0.19875,0.2183,0.083199,0.057905,0.018300999999999998,0.054358000000000004,0.17389000000000002,0.067628,0.038837,0.0017971,0.0688,0.14022,0.023808000000000003,0.045458,0.034066,0.041175,0.15968,0.18336,0.22507,0.18214,0.061584,0.07839,0.087983,0.13527999999999998,0.093814,-0.078753,0.00084638,0.079027,-0.004882899999999999,0.06511,0.16005999999999998,0.10974,0.059508000000000005,0.14885,0.11110999999999999,0.06009400000000001,0.073308,0.10843,0.19766,0.19128,0.22032,0.24148000000000003,0.24291999999999997,0.21265,0.33645,0.37993000000000005,0.29646,0.38249,0.37848000000000004,0.48788000000000004,0.53774,0.52518,0.5726600000000001,0.57728,0.6111800000000001,0.58824,0.63178,0.71326,0.66667,0.7097399999999999,0.8281799999999999,0.7795,0.67681,0.63947,0.59322,0.56003,0.71592,0.9087200000000001,0.82819,0.7285699999999999,0.7498600000000001,0.74758,0.82909,0.8746299999999999,0.78937,0.7356199999999999,0.78363,0.85669,0.8357600000000001,0.8420200000000001,0.93604,0.9532700000000001,0.9668100000000001,0.96985,0.9824200000000001,0.98615,1.0333,1.1153,1.0714,1.0258,0.98456,0.91064,0.80465,0.83704,0.87997,0.77444,0.7065100000000001,0.58516,0.36685999999999996,0.054966999999999995,-0.32001,-0.44805,-0.61905,-0.9303600000000001,-1.2391,-1.7823,-2.2711,-2.6808,-2.9946,-3.7924,-3.7030000000000003,-3.6024,-1.9786
1,0.16959000000000002,-2.496,-4.215,-4.9466,-4.4283,-3.359,-1.8088,-1.2322,-0.8797799999999999,0.08602699999999999,0.092397,0.13041,0.27852,0.17217000000000002,0.16268,0.071783,0.23251,0.13319,0.11242,0.05212000000000001,-0.037775,-0.0133,-0.12588,-0.04558,-0.027368,-0.10744000000000001,-0.058754999999999995,-0.15615,-0.20245,-0.22171999999999997,-0.32111999999999996,-0.35879,-0.50745,-0.43801999999999996,-0.50063,-0.49499,-0.6644399999999999,-0.50739,-0.40186,-0.50522,-0.43488999999999994,-0.32498,-0.22511,-0.18073,-0.15317999999999998,-0.11167,0.024541999999999998,-0.041302,0.085297,0.12634,0.10107999999999999,0.0093811,0.022531,0.057641,0.035125,0.18609,0.1104,0.08504400000000001,0.07685299999999999,0.11302999999999999,0.13429000000000002,0.061975,0.17642,0.17974,0.23606999999999997,0.3166,0.33281,0.41936,0.41853,0.40275,0.43693000000000004,0.5921,0.61106,0.50379,0.55181,0.62234,0.55177,0.57473,0.52254,0.55115,0.41336000000000006,0.43423999999999996,0.4293,0.52598,0.5226,0.47755,0.35391,0.40005,0.40231,0.24711999999999998,0.34913,0.31592,0.33329000000000003,0.3269,0.41031999999999996,0.4224,0.50515,0.7328,0.93,1.0327,1.0513,1.1803,1.4385,1.6795,1.494,1.1984,0.85988,0.72723,0.6319899999999999,0.5854699999999999,0.33979000000000004,0.060048000000000004,-0.15648,-0.21703000000000003,-0.31077,-0.35939,-0.39516,-0.44115,-0.49838999999999994,-0.44309,-0.35386999999999996,-0.3663,-0.4316,-0.36732,-0.28296,-0.44948999999999995,-0.3834,-0.254,0.33486,1.1984,1.4953,1.4265,1.3193,1.122,0.7098399999999999,0.24946999999999997,0.91114,0.62467,-1.0873,-3.7952
