0,1,2,3,4,5,6,7,8,9,10,11,12,13,14,15,16,17,18,19,20,21,22,23,24,25,26,27,28,29,30,31,32,33,34,35,36,37,38,39,40,41,42,43,44,45,46,47,48,49,50,51,52,53,54,55,56,57,58,59,60,61,62,63,64,65,66,67,68,69,70,71,72,73,74,75,76,77,78,79,80,81,82,83,84,85,86,87,88,89,90,91,92,93,94,95,96,97,98,99,100,101,102,103,104,105,106,107,108,109,110,111,112,113,114,115,116,117,118,119,120,121,122,123,124,125,126,127,128,129,130,131,132,133,134,135,136,137,138,139,140
5,0.6794,-1.6369999999999998,-3.8935,-4.7046,-4.1843,-3.0274,-2.017,-1.7763,-1.2498,-0.40125,-0.2514,-0.35846999999999996,-0.32671,-0.18503,-0.22637,-0.21258000000000002,-0.21168,-0.21773,-0.31012,-0.27837,-0.35988000000000003,-0.28659,-0.42994,-0.46461,-0.45085,-0.48018999999999995,-0.63308,-0.66138,-0.70967,-0.72419,-0.80202,-0.76426,-0.8642,-0.93884,-0.9570700000000001,-1.0295,-0.86424,-0.9333799999999999,-0.93227,-0.7628699999999999,-0.75137,-0.5799300000000001,-0.53523,-0.38483,-0.27676999999999996,-0.2752,-0.14454,-0.062971,0.016768,-0.036294,0.065169,0.068832,-0.0030743000000000003,0.07457799999999999,0.041836,0.07118,0.10967,0.06766699999999999,0.11919,0.17114000000000001,0.088152,0.084785,0.25172,0.18414,0.18055,0.26263000000000003,0.37485999999999997,0.35226999999999997,0.46755,0.51477,0.50359,0.49616000000000005,0.5405300000000001,0.6071300000000001,0.55589,0.59415,0.5955199999999999,0.5574,0.53976,0.64363,0.46046000000000004,0.4941,0.41243,0.34006,0.39934000000000003,0.37098000000000003,0.35924,0.32538,0.41116,0.36918,0.34081999999999996,0.34779,0.25836,0.30894,0.28038,0.32976,0.35353,0.49787,0.7327600000000001,1.0097,1.1108,1.2495,1.4052,1.6858,1.7324,1.6440000000000001,1.5398,1.2658,1.1214,0.96162,0.7880699999999999,0.52555,0.22125999999999998,-0.12568,-0.34303,-0.30075999999999997,-0.31487,-0.26279,-0.32911999999999997,-0.28386999999999996,-0.31379,-0.32991,-0.30984,-0.30696,-0.32375,-0.27099,-0.24473000000000003,-0.25951,-0.21854,0.007008199999999999,0.61358,0.9855799999999999,1.0959,1.4361,1.8263,1.8952,1.556,1.2296,1.6713,1.2565
5,-1.9098,-3.7889999999999997,-4.1817,-4.2504,-3.6979,-2.6584,-1.6545,-1.5959,-0.9615600000000001,-0.45682,-0.5358,-0.40471,-0.40409,-0.49813999999999997,-0.49832,-0.3375,-0.4477,-0.44946,-0.46403,-0.5688300000000001,-0.46893999999999997,-0.48789,-0.51682,-0.4976,-0.59227,-0.5879800000000001,-0.60419,-0.66037,-0.67407,-0.73161,-0.69314,-0.70425,-0.8695,-0.85159,-0.87625,-0.9136799999999999,-0.83065,-0.70748,-0.6834899999999999,-0.79662,-0.75002,-0.64594,-0.61731,-0.43701,-0.44958000000000004,-0.33878,-0.23589000000000002,-0.063407,-0.070775,-0.025937,-0.097756,-0.1314,-0.023967,0.042535,-0.016756,-0.093211,0.022000000000000002,0.01879,0.0051221,0.055785,0.06639600000000001,0.079109,0.19047999999999998,0.23755,0.17282,0.14978,0.20164,0.35194000000000003,0.36325999999999997,0.33655,0.38974000000000003,0.4169,0.48766000000000004,0.49178999999999995,0.5616,0.60155,0.59667,0.50646,0.56677,0.58804,0.58241,0.5603600000000001,0.49985,0.5117,0.5769,0.52563,0.5324800000000001,0.40492,0.40294,0.50285,0.56377,0.43899,0.47835,0.53763,0.51979,0.71335,0.92929,0.98934,1.1489,1.3075,1.3736,1.5322,1.5973,1.6184,1.5622,1.3719,1.2568,1.2287,0.99034,0.70168,0.56096,0.28943,0.13743,0.11114,0.06587799999999999,0.11490999999999998,0.1404,0.12892,0.16072999999999998,0.10387,0.11314,0.024541999999999998,0.12508,0.13862,0.077471,0.17256,0.17592,0.34849,0.61587,1.034,1.2248,1.1339,1.3255,1.3213,1.2258,1.0463,0.89099,0.84716,0.7955300000000001,-0.40092
1,-0.26093,-1.3159,-2.0669999999999997,-2.9693,-3.2931,-3.4107,-3.1368,-2.9701,-2.5517,-1.8237,-1.2157,-0.92409,-0.8765700000000001,-0.59228,-0.18222,-0.07045,0.060547000000000004,0.12225,0.041637,0.085872,-0.0079664,-0.1045,0.071961,0.17989000000000002,0.058959000000000004,0.091193,0.15827,0.07875900000000001,0.12415,0.15175999999999998,0.14486,0.1665,0.13,0.072764,0.015441,0.044521,0.064299,0.054694000000000007,0.059859,0.08415700000000001,0.097437,0.075138,0.10436,0.052159000000000004,0.013805000000000001,0.034711,-0.039206,-0.11055999999999999,-0.10630999999999999,-0.033474000000000004,-0.051764,-0.052565,-0.007797,-0.12097000000000001,-0.16216,-0.10429000000000001,-0.16154000000000002,-0.14451,-0.077061,-0.094546,-0.092289,-0.077914,0.00086734,0.081343,0.11114,0.11785,0.09804600000000001,0.15509,0.23826,0.2747,0.37116,0.3887,0.44148000000000004,0.49496999999999997,0.41100000000000003,0.55696,0.62676,0.6119,0.64553,0.54232,0.49796999999999997,0.5141,0.57604,0.63222,0.6246,0.69539,0.7004199999999999,0.62444,0.69686,0.6714399999999999,0.60311,0.68857,0.70087,0.66742,0.72167,0.7833399999999999,0.80529,0.76585,0.72734,0.78964,0.8774200000000001,0.88585,0.85072,0.89576,0.92874,0.95695,1.0071,1.0035,1.0537,1.0735,1.0048,0.9870700000000001,1.0105,1.0255,0.99249,0.91391,0.88144,0.8145899999999999,0.77491,0.8202799999999999,0.7720199999999999,0.69911,0.61884,0.45345,0.39392,0.49191,0.56519,0.5079,0.23439000000000002,-0.19135,-0.6258,-1.1635,-1.5861,-2.0944,-2.7992,-3.0156,-2.7369,-1.6316,-0.8785,0.34283
1,0.045005,-1.1329,-1.5486,-2.7603,-3.1710000000000003,-3.1978,-2.9609,-2.4276,-1.9718,-1.3524,-0.79071,-0.5532699999999999,-0.51044,-0.42336,-0.12647,0.25614000000000003,0.47641000000000006,0.47648,0.50531,0.62973,0.59439,0.49708,0.53677,0.52225,0.51517,0.59331,0.5579999999999999,0.4971,0.5100600000000001,0.46246000000000004,0.42988999999999994,0.5161100000000001,0.54452,0.48605,0.49693000000000004,0.52799,0.49878,0.47166,0.43022,0.37573,0.39125,0.41661000000000004,0.33347,0.26173,0.30679,0.32429,0.24441999999999997,0.19698,0.21656999999999998,0.21605,0.19426,0.19587000000000002,0.19272999999999998,0.13473,0.072282,0.02175,-0.012586,-0.029151999999999997,-0.09027400000000001,-0.12415,-0.083872,-0.11722,-0.13998,-0.038223,-0.010952,-0.092974,-0.057853999999999996,0.080055,0.070779,-0.029144,-0.008939399999999998,0.033173,0.024134,0.058370000000000005,0.091112,0.14372000000000001,0.22530999999999998,0.22571,0.23185,0.36029,0.46962,0.51395,0.57424,0.58612,0.59654,0.64767,0.6398699999999999,0.62679,0.6288600000000001,0.62788,0.6679,0.65552,0.62766,0.67797,0.7156399999999999,0.70418,0.68061,0.61673,0.6160899999999999,0.74385,0.77687,0.6982,0.69033,0.7280399999999999,0.7467,0.73127,0.75794,0.8538399999999999,0.85329,0.81699,0.82125,0.77572,0.68165,0.5292100000000001,0.4035,0.46091000000000004,0.5425300000000001,0.47029,0.40944,0.39433,0.317,0.251,0.17223,0.17552,0.34396,0.33974,0.16795,-0.14297,-0.7222,-1.3027,-1.893,-2.3613,-2.8096,-3.4639,-3.5394,-3.1545,-2.0791,-0.68696,-0.52315,1.1963
1,-2.5752,-3.2192,-2.8539,-3.1724,-2.8197,-2.6818,-2.5969,-2.0637,-1.53,-0.9297799999999999,-0.6247199999999999,-0.65368,-0.5431699999999999,-0.18217,0.23071999999999998,0.37922,0.34297,0.34533,0.34736999999999996,0.35286,0.31249,0.27436,0.38001,0.39361999999999997,0.28383,0.27784000000000003,0.30029,0.31990999999999997,0.35133000000000003,0.32694,0.28878000000000004,0.29336999999999996,0.37537,0.39097,0.31981,0.38961,0.4211,0.30057,0.26121,0.24572,0.24875999999999998,0.28079,0.24527,0.24220999999999998,0.21736,0.17269,0.24295999999999998,0.26774000000000003,0.21857,0.2165,0.18561,0.12013,0.11185999999999999,0.13165,0.14755,0.16102,0.12442,0.083596,0.14081,0.17915,0.10102,0.096853,0.1302,0.093667,0.1705,0.20438,0.10805,0.15727,0.23504,0.28251,0.36785,0.32848,0.3065,0.44708000000000003,0.49722,0.43405,0.5015,0.62142,0.57907,0.5319699999999999,0.59932,0.58399,0.51918,0.58632,0.65874,0.63344,0.60661,0.60717,0.61906,0.64353,0.65052,0.63159,0.6453399999999999,0.71785,0.7649,0.74253,0.70597,0.68983,0.6993199999999999,0.69628,0.67442,0.68177,0.66025,0.60819,0.61983,0.64248,0.6641199999999999,0.7175600000000001,0.72683,0.69672,0.70597,0.73952,0.7012,0.5892,0.52762,0.49453,0.45401,0.51262,0.5876600000000001,0.53085,0.47781,0.47938000000000003,0.36089,0.25737,0.38283,0.54775,0.51717,0.22576999999999997,-0.14140999999999998,-0.48071,-1.0541,-1.5898,-1.9919,-2.5684,-3.0055,-3.2827,-2.9347,-1.9981,-1.5261,-0.20493000000000003
5,0.61444,-1.4606,-3.6430000000000002,-4.6117,-4.1091,-3.3310000000000004,-2.2704,-1.7749,-1.4912,-0.72307,-0.25566,-0.40376999999999996,-0.33366999999999997,-0.32394,-0.4013,-0.3461,-0.37872,-0.37523,-0.45823,-0.42651999999999995,-0.49245,-0.4536,-0.44116000000000005,-0.54993,-0.5501699999999999,-0.68212,-0.6371399999999999,-0.60188,-0.75942,-0.7167600000000001,-0.83163,-0.80383,-0.8341799999999999,-0.9563299999999999,-0.9740700000000001,-0.96047,-0.9451700000000001,-0.88974,-0.8365600000000001,-0.7601399999999999,-0.75626,-0.6510699999999999,-0.58206,-0.39975,-0.24131999999999998,-0.20147,-0.16781,-0.088514,-0.060898,-0.018256,0.028845999999999997,-0.009134200000000002,-0.052927999999999996,0.047409,0.11917,0.039031,-0.021222,0.09314299999999999,0.09194,0.095238,0.14159000000000002,0.21791,0.23116,0.16126,0.19071,0.31808000000000003,0.37414000000000003,0.44937,0.51458,0.5072399999999999,0.44497,0.58217,0.62621,0.63048,0.6782100000000001,0.57034,0.58986,0.66097,0.59668,0.5605600000000001,0.62253,0.51751,0.5724100000000001,0.50646,0.49843999999999994,0.47938000000000003,0.45876000000000006,0.48386,0.43854,0.44018999999999997,0.44545,0.45843999999999996,0.40281999999999996,0.45935,0.3735,0.4837,0.53651,0.68833,0.98611,1.1754,1.2143,1.3106,1.5194,1.6214,1.5863,1.5273,1.2966,1.123,0.93206,0.8656,0.6268100000000001,0.42728999999999995,0.16287000000000001,-0.12177,-0.19493,-0.20463,-0.24074,-0.24043,-0.17851,-0.29029,-0.32216,-0.29957,-0.25426,-0.21894,-0.18378,-0.20169,-0.17475,-0.12205999999999999,0.13546,0.4742,1.0725,1.1875,1.3855,1.7619999999999998,1.8724,1.5221,1.1629,1.1231,1.3287,-0.14906
5,-1.0759,-2.4475,-3.4529,-4.1032,-4.0943,-3.6001,-3.0387,-1.8489,-1.2438,-1.0394,-0.54381,-0.024145,-0.0028733,-0.06761,-0.036666000000000004,-0.087185,-0.2406,-0.3319,-0.033411,0.055084,-0.028194,-0.10686,-0.079854,0.029544,0.056085,0.030042000000000003,0.12220999999999999,0.19733,0.11757000000000001,0.24729,0.27878000000000003,0.20274,0.28613,0.044538999999999995,-0.028064999999999996,0.037394,0.1042,0.22286,0.35720999999999997,0.37,0.27904,0.37967,0.35096,0.4467,0.51355,0.5817,0.61546,0.51164,0.5404,0.46003,0.42446000000000006,0.5462899999999999,0.56285,0.5189600000000001,0.5484399999999999,0.56838,0.43193000000000004,0.2283,0.22958,0.17972,0.36362,0.36798000000000003,0.23399,0.18862,0.30111,0.38639,0.25206999999999996,0.29817,0.32696,0.35031999999999996,0.47725,0.46383,0.58872,0.44553000000000004,0.27066,0.41902,0.6272,0.72214,0.54173,0.34228000000000003,0.44614,0.52615,0.58099,0.48422,0.48857,0.50758,0.38892,0.42378999999999994,0.39297,0.28735,0.40405,0.44916999999999996,0.39537,0.55975,0.80248,0.8923700000000001,1.0466,1.0717,1.2443,1.5874,1.8404,1.8316,1.6939,1.5827,1.4286,1.1447,1.0639,0.78223,0.49506000000000006,0.16410999999999998,-0.25326,-0.33785,-0.39698,-0.47726,-0.44347,-0.5338,-0.50108,-0.45847,-0.49893000000000004,-0.47653999999999996,-0.54503,-0.63157,-0.61148,-0.55375,-0.50661,-0.56402,-0.5208699999999999,-0.32718,-0.062975,0.51061,0.69585,0.40811,-0.15839,-0.8652,-1.2676,-1.4376,-1.3297,-1.1122,-1.2669,-2.5715
5,2.1501,0.57147,-2.3672,-4.2625,-4.0438,-3.2718,-2.1771,-1.4746,-1.4036,-0.53258,-0.076258,-0.23085,-0.21243,-0.15727,-0.22261999999999998,-0.2591,-0.2378,-0.26966,-0.25936,-0.30851999999999996,-0.36533000000000004,-0.42061000000000004,-0.42491999999999996,-0.45971999999999996,-0.54486,-0.56981,-0.62268,-0.7306199999999999,-0.7331300000000001,-0.9273,-0.9482,-1.0778,-1.1261,-1.129,-1.2419,-1.237,-1.2415,-1.2183,-1.1807,-1.1145,-1.0577,-0.9089700000000001,-0.80028,-0.6524,-0.50216,-0.40057,-0.24328000000000002,-0.20097,-0.14253,-0.1313,-0.028363,0.0374,0.089661,-0.020477000000000002,0.052962999999999996,0.081898,0.052926999999999995,0.1256,0.08834199999999999,0.14723,0.1734,0.19143,0.21796999999999997,0.17477,0.19730999999999999,0.34064,0.42731,0.35791999999999996,0.31328,0.45153999999999994,0.45208000000000004,0.44898999999999994,0.46997,0.5153,0.52988,0.4612,0.54914,0.46452,0.49286,0.55666,0.52758,0.48863999999999996,0.45246000000000003,0.35784,0.36038000000000003,0.33796,0.40695,0.37853000000000003,0.37855,0.2551,0.27251,0.21406999999999998,0.16094,0.32059,0.22566999999999998,0.30604000000000003,0.54867,0.7146399999999999,0.77478,0.90648,1.0381,1.2829,1.5811,1.6753,1.682,1.7348,1.5176,1.3292,1.1018,0.8233299999999999,0.5765,0.25367,-0.14506,-0.22676999999999997,-0.29551,-0.27076,-0.2426,-0.3221,-0.26379,-0.30277,-0.29138000000000003,-0.23600000000000002,-0.28331,-0.30417,-0.27581999999999995,-0.38745999999999997,-0.28115,-0.28957,-0.054009,0.50743,0.82683,0.61931,0.95135,1.3221,1.5919999999999999,1.6272,1.8188,2.3335,2.3766,0.49859
5,1.3318,-0.20744,-2.2523,-3.7257,-4.5218,-4.4196,-3.8621,-2.6561,-1.4352,-1.2368,-0.62659,-0.073564,-0.044212,-0.10067999999999999,-0.06633700000000001,-0.0094492,-0.076031,-0.10067999999999999,-0.12352,-0.16499,-0.10474000000000001,-0.1059,-0.078181,-0.23225,-0.29318,-0.36496,-0.30445,-0.35627,-0.51898,-0.39837,-0.41426999999999997,-0.52641,-0.68771,-0.66038,-0.78101,-0.7477699999999999,-0.81466,-0.73863,-0.6676300000000001,-0.80523,-0.70708,-0.69429,-0.63212,-0.48777,-0.54192,-0.38531,-0.2399,-0.26725,-0.074285,-0.028457,-0.019365,0.034777999999999996,-0.048118,0.012541,-0.0076046,0.057420000000000006,0.11615999999999999,0.18908,0.13205,0.10425999999999999,0.12115999999999999,0.23539000000000002,0.1856,0.18067,0.25769000000000003,0.22185,0.22399999999999998,0.26116999999999996,0.32189,0.35496,0.45127,0.40917,0.43451000000000006,0.53492,0.47289,0.60587,0.49001999999999996,0.44427,0.5525899999999999,0.4154,0.40168000000000004,0.45016000000000006,0.55695,0.41063,0.4471,0.32295999999999997,0.33671999999999996,0.25635,0.25378,0.26222,0.29572,0.28631999999999996,0.26871999999999996,0.4005,0.39076,0.42465,0.69909,0.8659100000000001,1.148,1.1413,1.3111,1.5587,1.7012,1.835,1.8023,1.7296,1.6074,1.3836,1.213,0.89875,0.71433,0.37978,-0.042079000000000005,-0.26924000000000003,-0.30889,-0.35877,-0.23631,-0.34441,-0.36456,-0.2638,-0.32005,-0.36068,-0.32924000000000003,-0.28936999999999996,-0.34652,-0.31396999999999997,-0.23668000000000003,-0.21666999999999997,-0.1969,0.14626,0.46435,0.68991,0.52903,0.84215,0.99824,1.1601,1.3017,1.1275,1.5119,0.55698
5,0.17425,-1.7254,-3.4675,-4.5264,-4.3652,-3.5846,-2.4922,-1.5296,-1.4726,-0.8766299999999999,-0.24266999999999997,-0.3732,-0.31979,-0.27269,-0.24950999999999998,-0.31259000000000003,-0.31856999999999996,-0.25634,-0.22582,-0.36102,-0.40003,-0.36865,-0.33973000000000003,-0.35436999999999996,-0.37125,-0.37340999999999996,-0.41295,-0.4022,-0.46243999999999996,-0.4533,-0.57995,-0.62334,-0.65523,-0.65227,-0.67938,-0.75736,-0.61151,-0.65074,-0.64957,-0.50307,-0.5404399999999999,-0.49523,-0.28829,-0.19885,-0.13902,-0.058712,0.018838,0.040948000000000005,0.018606,0.084458,0.047458999999999994,0.14937,0.08453,0.049980000000000004,0.15012999999999999,0.073363,0.10136,0.10067000000000001,0.12387999999999999,0.17967,0.18189,0.23340999999999998,0.14955,0.13003,0.22405999999999998,0.33966999999999997,0.42163,0.38897,0.35703,0.42085,0.5292600000000001,0.54579,0.6160800000000001,0.47891000000000006,0.60959,0.58131,0.6150800000000001,0.6459699999999999,0.6046600000000001,0.58465,0.62052,0.53977,0.51579,0.51299,0.55796,0.40761,0.44869,0.50951,0.37221,0.43401000000000006,0.37644,0.39738,0.37611999999999995,0.42007,0.56118,0.71786,0.90994,0.95689,1.1329,1.3595,1.554,1.8008,1.8589,1.7981,1.7246,1.546,1.4905,1.2156,0.8542200000000001,0.53418,0.17848,-0.09635099999999999,-0.23039,-0.2755,-0.3306,-0.24731,-0.35336,-0.31998000000000004,-0.36124,-0.29486999999999997,-0.37099,-0.31778,-0.3621,-0.27015,-0.21943000000000001,-0.26088,-0.15768,0.13059,0.69995,1.1147,1.0561,1.2563,1.4546,1.3224,0.8449700000000001,0.32744,0.70036,0.58329,-0.37653000000000003,-2.3907
1,-0.51479,-0.91881,-1.0546,-1.6993,-1.8530000000000002,-1.8676,-1.8979,-1.9915,-2.0679,-1.9597,-1.8106,-1.5035,-0.9771799999999999,-0.57309,-0.37051,-0.23,-0.09912,0.1816,0.42898000000000003,0.5322899999999999,0.55319,0.46731999999999996,0.47403999999999996,0.50003,0.48665,0.52471,0.48446999999999996,0.45916,0.5131,0.54223,0.51047,0.46734,0.49283000000000005,0.48076,0.45411,0.46775,0.4423,0.46312,0.48831,0.48449,0.49623,0.45551,0.3922,0.32131,0.3481,0.45351,0.44878999999999997,0.43653000000000003,0.42768,0.37246,0.39655,0.45174,0.43935,0.4211,0.42882,0.43927,0.41465,0.3428,0.32854,0.31977,0.32535,0.3961,0.34217,0.28433,0.29744,0.2684,0.30054000000000003,0.30518,0.2397,0.27549,0.35383000000000003,0.32933,0.2764,0.31455,0.38023,0.36807,0.33644,0.3812,0.42826000000000003,0.42318,0.42503,0.4277,0.42668999999999996,0.46415,0.50183,0.48199,0.46398,0.49595,0.51957,0.52686,0.51047,0.48951999999999996,0.5456,0.56357,0.51439,0.49623,0.52361,0.57485,0.50432,0.48078999999999994,0.55319,0.52586,0.56772,0.54991,0.45773,0.51047,0.5204300000000001,0.5071,0.53952,0.51613,0.51047,0.55888,0.5715600000000001,0.5296,0.46212,0.33959,0.23246999999999998,0.26989,0.38072,0.43246,0.43927,0.45298999999999995,0.45166999999999996,0.38595,0.26982,0.1972,0.19882,0.17094,0.014644999999999998,-0.26394,-0.64295,-1.1175,-1.6687,-2.435,-3.0819,-3.8469,-4.3068,-3.7562,-3.5508,-1.6548
5,-1.294,-2.0273,-3.5527,-4.9003,-4.7522,-4.2715,-3.3064,-2.3519,-1.6651,-0.9912299999999999,-0.17665,0.44266000000000005,0.77837,0.94266,0.91635,0.8291700000000001,0.87282,0.7872899999999999,0.36054,0.21428000000000003,0.3199,0.30619,0.42078999999999994,0.44043000000000004,0.4975,0.5511199999999999,0.52708,0.5007699999999999,0.55211,0.5061899999999999,0.51485,0.32615,0.27791,0.29791999999999996,0.19744,0.15339,0.011558,0.06997,-0.014825999999999999,-0.058862,-0.075374,-0.14267,-0.06618099999999999,-0.05608200000000001,-0.048056,-0.004882899999999999,0.06255,0.026251999999999998,0.025486,0.042491,0.024604,-0.0096145,0.0033061999999999996,0.0095546,-0.1144,-0.10201,-0.041487,-0.15662,-0.06792100000000001,-0.083071,-0.22245,-0.15550999999999998,-0.14344,-0.23437,-0.1936,-0.17602,-0.19187,-0.24853000000000003,-0.21785,-0.19559,-0.27645,-0.23967,-0.16812,-0.22371999999999997,-0.12988,-0.23836,-0.23754,-0.092704,-0.14642,-0.15347,-0.13159,-0.18043,-0.069788,-0.033750999999999996,-0.10542,-0.055175999999999996,-0.038701,-0.070324,-0.063907,0.006360800000000001,-0.09312899999999999,0.06448200000000001,-0.02733,0.0049388999999999995,0.13915,0.013063,0.25976,0.1421,0.10589000000000001,0.098574,0.10425,0.072024,0.066152,0.080968,0.14396,0.13885999999999998,0.24215,0.16871,0.43028999999999995,0.72439,0.87416,1.1074,1.5516,1.8703,1.8297,1.7949,1.4031,1.0903,0.86944,0.34105,0.1063,-0.093899,-0.067069,-0.08150800000000001,-0.07093300000000001,-0.0582,0.033339,-0.082702,0.040907,-0.076908,-0.06814500000000001,0.38687,0.9302299999999999,1.1282,1.1232,1.0313,0.79266,0.75674,1.187,-0.37843000000000004
5,-1.4609999999999999,-3.6945,-4.3381,-4.3521,-4.0272,-3.4804,-2.0087,-1.3133,-1.1116,-0.4428,-0.11735,-0.10967,-0.20353,-0.13673,-0.097932,-0.10517,-0.11564,-0.085091,-0.0089662,-0.067884,-0.14474,-0.099387,-0.15685,-0.15991,-0.19042,-0.19050999999999998,-0.18229,-0.26863000000000004,-0.29804,-0.34471,-0.44161000000000006,-0.47655,-0.55798,-0.52262,-0.5118199999999999,-0.58837,-0.5443,-0.56263,-0.5029899999999999,-0.4607,-0.3967,-0.28931999999999997,-0.28933000000000003,-0.19655999999999998,-0.13125,-0.071644,0.08773099999999999,0.083776,0.14612,0.046686,0.047192000000000005,0.069376,0.15120999999999998,0.058373,0.19137,0.16108,0.16867000000000001,0.23655,0.19019,0.13374,0.19233,0.23409000000000002,0.22121,0.30317,0.27625,0.27142,0.31819000000000003,0.35943,0.44068,0.51131,0.41849,0.47448,0.48047,0.44673999999999997,0.52212,0.68528,0.59285,0.53373,0.50773,0.60263,0.58668,0.5116,0.5272899999999999,0.45133999999999996,0.44528,0.37766,0.37074,0.40268000000000004,0.38228,0.31587,0.35573,0.30549,0.25439,0.28981999999999997,0.45397,0.5851,0.6633100000000001,0.86919,0.9788899999999999,1.2211,1.4361,1.742,1.8181,1.8561,1.7352,1.5232,1.3166,1.1531,0.95583,0.6373300000000001,0.27318000000000003,-0.018012,-0.30322,-0.38666999999999996,-0.40881,-0.36230999999999997,-0.34305,-0.39621,-0.41498999999999997,-0.42186999999999997,-0.46753999999999996,-0.45303000000000004,-0.34626999999999997,-0.39323,-0.40381999999999996,-0.32799999999999996,-0.30680999999999997,-0.18995,0.045186000000000004,0.68505,0.9699200000000001,0.9359999999999999,1.1329,1.0655,0.95105,0.64635,0.79635,1.0906,0.42427,-1.9014
5,-2.1191,-3.0261,-3.2929,-3.6986,-3.6113,-3.4285,-2.7659,-1.7922,-1.405,-1.192,-0.74736,-0.44769,-0.51234,-0.39205999999999996,-0.44088999999999995,-0.45773,-0.4162,-0.44017,-0.44416000000000005,-0.47973999999999994,-0.4463,-0.45218,-0.34707,-0.41257,-0.36419,-0.34819,-0.41126999999999997,-0.48713999999999996,-0.39007,-0.41386999999999996,-0.38255,-0.36724,-0.36927,-0.2983,-0.40131999999999995,-0.48896000000000006,-0.50292,-0.31844,-0.37716,-0.35078000000000004,-0.38228,-0.27826999999999996,-0.29519,-0.284,-0.21915,-0.30337,-0.14272,-0.060784000000000005,-0.07484400000000001,-0.10865,-0.12921,-0.012855000000000002,0.08079,0.016337,-0.064884,-0.082353,-0.06780800000000001,-0.042210000000000004,0.033716,-0.0598,-0.12727,-0.052194000000000004,-0.1056,-0.014908000000000001,-0.062359000000000005,-0.14176,-0.081566,-0.0062697,-0.10844000000000001,-0.080411,-0.014421999999999999,0.046002,0.010297,0.10876,-0.0057404,0.05430499999999999,0.14637999999999998,0.18331,0.28920999999999997,0.33243,0.39849,0.41985,0.36925,0.44253000000000003,0.40947,0.49168,0.62146,0.62378,0.6471100000000001,0.7963899999999999,0.8934,1.0329,1.1944,1.3767,1.663,1.8897,1.9991,2.1219,2.1704,1.8728,1.6267,1.6116,1.4824,1.2223,0.93515,0.69148,0.52147,0.28599,0.17431,0.12937,0.15389,0.077655,0.02984,0.016045,0.0023945999999999998,0.083716,0.13330999999999998,0.09273300000000001,0.086749,0.027346,0.08174,0.15695,0.07034800000000001,0.26009,0.21099,0.43611000000000005,0.7759,1.1658,1.3802,1.3307,1.4183,1.2963,1.0978,0.79723,0.52541,0.20801,0.25625,0.21955,-0.19777999999999998,-1.1612
5,0.48081999999999997,-1.099,-2.2569,-2.9527,-3.6952,-3.654,-2.6708,-1.7452,-1.6362,-0.9283799999999999,-0.34775,-0.35398,-0.37769,-0.24508000000000002,-0.41107,-0.39229,-0.33576999999999996,-0.42988999999999994,-0.36200000000000004,-0.44335,-0.5292,-0.50476,-0.41505,-0.45111999999999997,-0.5545,-0.6792699999999999,-0.64237,-0.7315699999999999,-0.8105899999999999,-0.79306,-0.81496,-0.94286,-1.0031,-1.0313,-1.1846,-1.2532,-1.1942,-1.2885,-1.2603,-1.227,-1.3673,-1.2457,-1.192,-1.0417,-0.9291799999999999,-0.8579200000000001,-0.75307,-0.66293,-0.49991,-0.40708,-0.33876,-0.2662,-0.32987,-0.25106,-0.13425,-0.1585,-0.22466999999999998,-0.15207,-0.042911000000000005,-0.13681,-0.12966,-0.092959,0.10213,-0.0056068,0.04699,0.021934,0.049221,0.07281900000000001,0.17049,0.24749000000000002,0.35072,0.40103,0.38591,0.44041,0.51618,0.591,0.5079199999999999,0.61263,0.60048,0.53362,0.58545,0.52432,0.55996,0.63568,0.59448,0.54676,0.55834,0.51777,0.63108,0.46434,0.41993,0.46618999999999994,0.38109,0.43798000000000004,0.45848999999999995,0.43983,0.50268,0.52327,0.4218,0.53394,0.48432,0.61211,0.83245,0.99093,0.96898,1.0492,1.3174,1.4667,1.3137,1.1066,1.0519,0.90389,0.9396899999999999,1.0916,0.8932899999999999,0.67935,0.37056999999999995,0.22236999999999998,0.30251999999999996,0.19737000000000002,0.30791999999999997,0.33014,0.22876,0.25922,0.39428,0.2926,0.27633,0.33597,0.35326,0.4333,0.6715,1.3535,1.3502,1.3712,1.9559,2.2418,2.359,1.7022,1.4248,2.0973
1,0.07253,-0.41615,-0.65782,-1.1736,-1.3763,-1.6123,-1.8873,-1.845,-1.6819,-1.4731,-1.1435,-0.6966,-0.28021,-0.09790900000000001,-0.1172,-0.12966,0.044274,0.35406,0.5677800000000001,0.62045,0.5978399999999999,0.5414100000000001,0.49713999999999997,0.46355,0.46775,0.55038,0.55923,0.47688,0.47268999999999994,0.49532,0.47375,0.48283000000000004,0.52062,0.5328,0.52404,0.51168,0.50162,0.48775,0.45408000000000004,0.40703,0.4141,0.47889,0.49216000000000004,0.45316000000000006,0.45751000000000003,0.47476999999999997,0.46133,0.41358999999999996,0.36163,0.37964000000000003,0.38554,0.33461,0.34458,0.36667,0.36267,0.41026,0.44509,0.42691999999999997,0.42146000000000006,0.40333,0.3425,0.30904,0.31615,0.33693,0.37128,0.37156,0.37723,0.44948,0.4705,0.41873999999999995,0.40568000000000004,0.44838999999999996,0.49603,0.48651000000000005,0.43705,0.46463000000000004,0.5467,0.54803,0.49838999999999994,0.5196,0.56489,0.55065,0.52753,0.5369,0.55062,0.58208,0.6411399999999999,0.65698,0.6028,0.57316,0.59902,0.60218,0.5761,0.5558,0.54585,0.5142800000000001,0.42965,0.4093,0.47556000000000004,0.4608,0.44114,0.49878999999999996,0.51815,0.49023999999999995,0.4283,0.40568000000000004,0.47157,0.46568999999999994,0.43806999999999996,0.48053999999999997,0.44828,0.33127,0.20854,0.13413,0.19748,0.3396,0.43788999999999995,0.44396,0.33457,0.17182999999999998,0.054629,-0.067784,-0.2141,-0.2244,-0.14687999999999998,-0.21106,-0.42623999999999995,-0.73124,-1.1466,-1.6801,-2.2979,-2.8847,-3.5736,-4.1751,-4.2146,-3.8324,-2.8479,-1.9002,-1.7385,-0.3735
5,-1.0044,-3.7411,-4.2234,-4.6028,-4.1948,-2.7652,-1.72,-1.5565,-0.73355,-0.28514,-0.20667,-0.19468,-0.20103,-0.20224,-0.18777,-0.22894,-0.24184,-0.13906,-0.1625,-0.293,-0.28046,-0.22433000000000003,-0.24744000000000002,-0.25653000000000004,-0.28853,-0.31135,-0.34254,-0.35327,-0.39416,-0.47508,-0.4391,-0.53091,-0.47768999999999995,-0.52682,-0.5099100000000001,-0.5634,-0.5869800000000001,-0.5458,-0.5504899999999999,-0.44636000000000003,-0.4541,-0.38681,-0.23221999999999998,-0.23998000000000003,-0.09510700000000001,0.009895900000000001,-0.07130700000000001,0.025478999999999998,0.017593,0.034671,0.07182100000000001,0.044661,0.030083,0.14243,0.12531,0.17575,0.17090999999999998,0.12487999999999999,0.25081,0.10692,0.10642,0.23296,0.27255,0.25905,0.41717,0.40186,0.33042,0.45915,0.5073300000000001,0.52688,0.5170600000000001,0.62821,0.58258,0.5385300000000001,0.59137,0.64025,0.51276,0.48898,0.47207,0.44145,0.5407,0.42013,0.43138000000000004,0.41501000000000005,0.40803,0.2857,0.34675,0.31958000000000003,0.30641,0.35135,0.3643,0.29862,0.31601,0.38939,0.30451,0.30561,0.30733,0.35673,0.57043,0.79319,1.0541,1.2634,1.4525,1.6465,2.0127,2.1508,2.0196,1.8804,1.7647,1.5249,1.1379,0.9248700000000001,0.35736,-0.043502,-0.28447,-0.20945999999999998,-0.35119,-0.39428,-0.35932,-0.25013,-0.27366999999999997,-0.39332,-0.24409,-0.26453000000000004,-0.29062,-0.30749,-0.28210999999999997,-0.26805999999999996,-0.23129,-0.024391999999999997,0.44038999999999995,1.1054,1.0965,0.9934700000000001,0.78415,0.24395999999999998,0.19609000000000001,0.13066,0.74926,-1.8319
1,-0.064864,-0.67506,-1.0415,-1.6969999999999998,-2.095,-2.3151,-2.4172,-2.3956,-2.3404,-2.2114,-2.0557,-1.7184,-1.1939,-0.79582,-0.61339,-0.54791,-0.45913000000000004,-0.24614,-0.012647,0.10386,0.12136,0.10742,0.10178999999999999,0.11707000000000001,0.12147000000000001,0.13268,0.17543,0.18154,0.19005999999999998,0.21329,0.18073,0.16654000000000002,0.18971,0.21215,0.24599000000000001,0.20865999999999998,0.13077,0.12054000000000001,0.12487000000000001,0.12287000000000001,0.18069000000000002,0.24635,0.28029,0.32415,0.33383,0.32229,0.37091,0.39321,0.34006,0.30430999999999997,0.31672,0.33645,0.33311999999999997,0.31805,0.28193,0.25751999999999997,0.30791999999999997,0.31403000000000003,0.28641,0.36488000000000004,0.41578000000000004,0.44303000000000003,0.5183,0.5008,0.45188999999999996,0.44296,0.44338,0.47303999999999996,0.46693,0.4969,0.58286,0.59963,0.61323,0.62973,0.59717,0.58367,0.58521,0.6200100000000001,0.6782100000000001,0.65989,0.61116,0.63315,0.6791,0.67999,0.66254,0.66514,0.67632,0.653,0.61305,0.6331399999999999,0.66133,0.63417,0.60817,0.58423,0.56991,0.62295,0.6524300000000001,0.58235,0.55711,0.59716,0.59821,0.61488,0.6272399999999999,0.5986,0.61036,0.59627,0.53567,0.55323,0.61026,0.5976600000000001,0.55035,0.50338,0.48396999999999996,0.52515,0.5296,0.5067699999999999,0.55494,0.60207,0.62321,0.58945,0.50369,0.47603,0.48983999999999994,0.61753,0.8273799999999999,0.84306,0.70299,0.44986000000000004,-0.05736,-0.69113,-1.3463,-2.0022,-2.7764,-3.5214,-3.7283,-3.535,-2.7593,-1.815,-1.6208,-0.43327
5,0.40660999999999997,-2.0084,-3.9735,-4.3617,-3.8315,-3.1804,-2.1756,-1.6487,-1.4256,-0.6250899999999999,-0.33299,-0.37645,-0.34037,-0.29568,-0.32106999999999997,-0.33458000000000004,-0.29384,-0.24666999999999997,-0.36682,-0.43658,-0.34915,-0.33813000000000004,-0.46493,-0.43487,-0.4547,-0.60428,-0.61659,-0.6444300000000001,-0.70685,-0.71568,-0.82329,-0.78947,-0.7699,-0.9316700000000001,-0.9551700000000001,-0.9265700000000001,-0.80928,-0.87259,-0.79919,-0.8343299999999999,-0.7308100000000001,-0.64815,-0.60524,-0.38827,-0.29195,-0.28588,-0.10939000000000002,-0.12272999999999999,-0.09150499999999999,0.06273,-0.050345,0.069888,0.16881,0.10595,0.21572,0.2017,0.21023000000000003,0.13445,0.26300999999999997,0.26213000000000003,0.14601,0.25283,0.34721,0.36619,0.35933000000000004,0.34436,0.36808,0.45403999999999994,0.52796,0.5944699999999999,0.5505899999999999,0.6401399999999999,0.60651,0.67133,0.7337899999999999,0.63215,0.77563,0.68523,0.58532,0.6251,0.51958,0.53056,0.5486800000000001,0.47611000000000003,0.53341,0.49305,0.44714,0.44304,0.38018,0.41521,0.358,0.32514,0.3369,0.37168,0.5244300000000001,0.60073,0.7784,0.9043200000000001,0.98187,1.2657,1.5318,1.7657,1.8249,1.743,1.6189,1.4591,1.2765,0.98406,0.74312,0.41843,0.1232,-0.078125,-0.31606,-0.28988,-0.33154,-0.4233,-0.43115,-0.39946,-0.32821999999999996,-0.33634000000000003,-0.38519000000000003,-0.38247,-0.3194,-0.29723,-0.35523000000000005,-0.33157,-0.29845,-0.1127,0.23776999999999998,0.79468,0.8967700000000001,0.80179,1.2683,1.4508,1.4096,1.1727,1.2786,1.7830000000000001,1.5595,-0.5866100000000001
5,-2.2737,-3.9478,-4.3342,-4.4764,-3.5406,-2.2827,-1.6202,-1.0978,-0.36122,-0.32796,-0.26847,-0.34384000000000003,-0.26344,-0.12997999999999998,-0.17454,-0.24403000000000002,-0.35614,-0.17670999999999998,-0.31184,-0.32948,-0.26399,-0.28965,-0.26364,-0.31968,-0.38,-0.25819000000000003,-0.40983,-0.46936000000000005,-0.47934,-0.50425,-0.5507,-0.56038,-0.573,-0.5466,-0.62255,-0.57331,-0.5556800000000001,-0.5287,-0.51688,-0.54761,-0.60058,-0.29084,-0.2288,-0.34399,-0.36924,-0.11821,-0.10445,-0.0021413,-0.079899,-0.052385,-0.013880000000000002,0.13552999999999998,0.082263,-0.0039608,0.09487999999999999,0.11552,0.057677,0.037786,0.10497999999999999,0.093073,0.21356999999999998,0.16437000000000002,0.29474,0.29821,0.32366,0.3629,0.36069,0.35556,0.5292100000000001,0.5237,0.74327,0.84416,0.8107300000000001,0.70919,0.49091999999999997,0.67348,0.71955,0.6451899999999999,0.6353300000000001,0.63778,0.7424,0.54999,0.46521,0.54652,0.64761,0.41005,0.30715,0.37321,0.40016999999999997,0.4712,0.5203399999999999,0.4838,0.47226,0.43367,0.39050999999999997,0.39549,0.49311000000000005,0.28941,0.33910999999999997,0.67791,0.82024,0.9949,1.2647,1.4266,1.6942,1.9539,1.8242,1.8601,1.6842,1.3431,1.1271,0.91253,0.59451,0.25943,-0.041187,-0.18742,-0.17378,-0.20159000000000002,-0.18841,-0.12393,-0.2063,-0.22988000000000003,-0.17204,-0.10712,-0.00010698,-0.037291000000000005,-0.18014000000000002,-0.24618,0.051284,0.5723199999999999,1.5098,1.7844,1.3279,0.99984,0.47917,-0.27409,-1.0096,-1.1526,-0.42978,-1.7072
5,0.01617,-2.1159,-2.9938,-3.5758,-3.7421,-3.127,-2.2126,-1.8419999999999999,-1.6306,-1.0111,-0.72317,-0.72909,-0.67789,-0.66305,-0.6520699999999999,-0.6281100000000001,-0.68996,-0.69085,-0.64179,-0.64949,-0.65104,-0.65793,-0.68499,-0.7186899999999999,-0.67847,-0.7392,-0.75517,-0.76522,-0.76323,-0.7318,-0.76448,-0.8458600000000001,-0.8899799999999999,-0.87079,-0.8927799999999999,-0.93074,-0.82376,-0.85687,-0.81553,-0.85862,-0.86655,-0.6842199999999999,-0.67019,-0.58268,-0.59683,-0.48706000000000005,-0.46518000000000004,-0.34223000000000003,-0.33385,-0.23446999999999998,-0.18270999999999998,-0.12235,-0.09515499999999999,-0.14303,-0.079082,-0.080651,-0.056847,-0.007592100000000001,-0.038825,0.017941,-0.011081,0.00036589,0.038728,0.14184000000000002,0.14978,0.18717,0.2089,0.22987,0.29068,0.23142,0.298,0.37266,0.37479,0.40237,0.40295,0.45537,0.41281,0.40543,0.38921999999999995,0.43746,0.3667,0.40181,0.36225999999999997,0.38159,0.39603,0.39311999999999997,0.40703,0.49193000000000003,0.38608000000000003,0.40484000000000003,0.38921,0.45861,0.47125,0.47248999999999997,0.41796000000000005,0.45941000000000004,0.59443,0.6308600000000001,0.80592,0.9810200000000001,1.1351,1.3577,1.5730000000000002,1.8758,2.1511,2.2031,2.1762,1.9255,1.8997,1.7657,1.3744,0.98665,0.56896,0.35604,0.17346,0.22045,0.15775999999999998,0.15170999999999998,0.14872,0.22163000000000002,0.27025,0.22425,0.24405,0.17523,0.22013000000000002,0.24955,0.27714,0.30025999999999997,0.33007,0.4466,0.8813700000000001,1.3324,1.2357,1.0601,0.9373100000000001,0.6815,0.80237,0.82165,1.5875,1.1356
5,1.2856,-0.1933,-1.9736,-2.8829,-3.8743,-3.9711,-2.9396,-1.9591,-1.7719999999999998,-0.8429700000000001,-0.26450999999999997,-0.41073000000000004,-0.27204,-0.29214,-0.25425,-0.26884,-0.25351999999999997,-0.43198000000000003,-0.42604,-0.43309,-0.44138,-0.46686000000000005,-0.43928999999999996,-0.53596,-0.65877,-0.64982,-0.67879,-0.7977,-0.7519600000000001,-0.81622,-0.85354,-0.92789,-0.9933299999999999,-0.98015,-1.0667,-1.0611,-1.0577,-1.0924,-1.17,-1.0731,-1.0563,-0.98554,-0.86695,-0.80696,-0.63325,-0.59597,-0.36630999999999997,-0.34168000000000004,-0.30312,-0.28658,-0.23813,-0.21839,-0.017731999999999998,-0.085877,-0.039859,0.038262,-0.049012,0.0029390999999999996,0.021248,0.1543,0.18750999999999998,0.23037,0.20736,0.17453,0.2834,0.20257,0.23506999999999997,0.3187,0.45098,0.4277,0.44351,0.5622199999999999,0.62531,0.6109899999999999,0.5926,0.64805,0.58441,0.65758,0.59747,0.60015,0.59186,0.54635,0.52162,0.54772,0.45403000000000004,0.47172,0.39207,0.29367,0.37818,0.50258,0.4939,0.55374,0.43899,0.45626000000000005,0.48312,0.4405,0.47301000000000004,0.48849,0.33142,0.3294,0.40176999999999996,0.58463,0.9072100000000001,1.1589,1.3198,1.4308,1.6357,1.976,2.346,2.4247,2.2464,2.0088,1.815,1.297,1.0615,0.49254,-0.054360000000000006,-0.23523000000000002,-0.32425,-0.28822,-0.25046999999999997,-0.22025999999999998,-0.17609,-0.14148,-0.22288000000000002,-0.16230999999999998,-0.24599000000000001,-0.14472000000000002,-0.099771,-0.1006,-0.11085,0.098938,0.9525600000000001,1.2533,1.1346,1.4517,1.1583,0.59672,0.055072,0.75856
3,0.055689999999999996,-0.86597,-1.5249,-2.2689,-2.6129,-2.7623,-2.7179,-2.4333,-2.103,-1.6727,-1.1540000000000001,-0.7167,-0.4998,-0.46821999999999997,-0.37014,-0.041373,0.30704000000000004,0.47703999999999996,0.52725,0.46593,0.37968,0.44731000000000004,0.56952,0.55783,0.49471000000000004,0.45381000000000005,0.45078999999999997,0.5109100000000001,0.49866000000000005,0.45828,0.51261,0.54493,0.5162100000000001,0.43046,0.39655,0.49665,0.5130600000000001,0.47042,0.4778,0.43227,0.41523999999999994,0.44548000000000004,0.36227,0.3075,0.40791,0.42468,0.34676,0.35468,0.35538000000000003,0.31951999999999997,0.32088,0.31766,0.29098,0.25381,0.23119,0.19435,0.16949,0.22052,0.2301,0.195,0.19869,0.17182999999999998,0.1563,0.15315,0.13430999999999998,0.19222999999999998,0.22025,0.16,0.13577,0.17498,0.23904,0.2587,0.2791,0.34786,0.35815,0.3762,0.4446,0.47393,0.51342,0.5586300000000001,0.58405,0.59939,0.60021,0.6681199999999999,0.72664,0.7196,0.70404,0.62045,0.61893,0.70023,0.6852,0.68807,0.64952,0.5775399999999999,0.64336,0.67445,0.65974,0.70891,0.72185,0.70589,0.68321,0.6263,0.6353,0.69957,0.66802,0.64453,0.69999,0.7064199999999999,0.68879,0.6755800000000001,0.70544,0.74885,0.65742,0.56705,0.47581,0.32876,0.34015,0.41192,0.41675,0.36501,0.23586999999999997,0.1704,0.06466000000000001,-0.1672,-0.21404,-0.1134,-0.17565999999999998,-0.4097,-0.72564,-1.1435,-1.6479,-2.0767,-2.5331,-3.1135,-3.4945,-3.6476,-3.153,-2.1511,-1.5448,-0.10445
1,0.80952,-0.79184,-1.8605,-2.3443,-2.8172,-3.0741,-3.1272,-2.5823,-1.7363,-1.1524,-0.91143,-0.73685,-0.32864,0.12533,0.40395,0.39548,0.41358,0.2006,0.31104,0.21766999999999997,0.26214,0.262,0.28201,0.33869,0.33434,0.2756,0.21998,0.1846,0.18229,0.10054,0.092876,0.059627,0.091212,0.077901,0.023451,0.034744,0.099985,-0.033574,-0.20129,-0.1561,-0.14076,-0.11473,-0.07094,-0.1356,-0.21702,-0.27410999999999996,-0.2539,-0.2527,-0.33603,-0.32015,-0.32208000000000003,-0.37438,-0.27326,-0.1466,-0.11525999999999999,-0.18303,-0.11507,-0.10664000000000001,0.021013999999999998,0.11692999999999999,0.094407,0.20856,0.18674000000000002,0.30059,0.39951,0.39459,0.42731,0.32283,0.31705,0.39666,0.45165,0.4491,0.48253,0.57977,0.47566,0.5049899999999999,0.5358,0.54915,0.47373999999999994,0.41013,0.42049,0.56176,0.56812,0.59353,0.46897,0.50448,0.45037,0.60352,0.6523800000000001,0.6121,0.6843899999999999,0.68265,0.75762,0.8163199999999999,0.76134,0.8271799999999999,0.88964,0.8480200000000001,0.83749,0.87631,0.86434,1.0941,1.0817,1.0064,1.028,1.0162,1.0249,1.0090000000000001,0.97739,0.9659,0.9717100000000001,0.93614,0.80224,0.74707,0.8556600000000001,0.79548,0.7501,0.7040000000000001,0.5301,0.30074,0.28926,0.37548000000000004,0.30714,0.12705999999999998,-0.008831799999999999,-0.078753,-0.13072,0.13602,0.23861,0.0028497,-0.46282,-1.1532,-1.6969,-2.189,-3.2334,-3.943,-3.7589,-2.5743,-1.1608,-0.25508000000000003
1,0.56185,-0.49438999999999994,-1.3223,-2.1802,-2.5838,-3.0561,-2.8828,-2.7954,-2.4495,-1.8458,-1.1307,-0.7278100000000001,-0.66572,-0.52522,-0.21452,0.06692100000000001,0.26122,0.22321,0.24881,0.24745,0.21791999999999997,0.25104,0.20446,0.26329,0.23579,0.19102,0.24519000000000002,0.2139,0.19881,0.15714,0.18412,0.18715,0.21472,0.13458,0.10507999999999999,0.16354000000000002,0.029057,0.17574,0.20533,0.043316,0.1073,0.08351499999999999,0.037212999999999996,0.042791,0.013743,0.026537,-0.086925,-0.069488,0.0041888,-0.054034000000000006,-0.012062999999999999,-0.015916999999999997,0.0048613,-0.032354,0.048570999999999996,0.085673,-0.028118,0.016818,0.085813,0.11425999999999999,0.13762,0.11513,0.16616,0.24921,0.28236,0.29736,0.39108000000000004,0.43377,0.29256,0.37031,0.44783,0.41753,0.5020899999999999,0.47268000000000004,0.45415,0.40319,0.37865,0.48696000000000006,0.40844,0.42677,0.47933000000000003,0.41113,0.50866,0.49845,0.48818,0.49713,0.48206000000000004,0.49817,0.43488999999999994,0.525,0.47394,0.49841,0.52291,0.5723,0.55403,0.5463600000000001,0.65007,0.6424300000000001,0.58911,0.61959,0.67992,0.69608,0.7479600000000001,0.76495,0.81801,0.8257,0.8603200000000001,0.88882,0.83096,0.8524700000000001,0.9204899999999999,0.8778600000000001,0.84826,0.88313,0.8994,0.88361,0.71315,0.64089,0.5961,0.51097,0.54756,0.61233,0.57528,0.50926,0.45683999999999997,0.41173999999999994,0.44035,0.5465899999999999,0.62207,0.41401000000000004,0.011993,-0.40406,-1.0757,-1.4311,-2.2918,-3.0475,-4.1012,-3.6224,-3.4501,-1.8177
5,-1.5062,-4.1684,-5.1104,-5.0608,-4.2404,-2.9364,-1.5099,-1.3517,-0.69912,0.05274500000000001,0.097899,0.050709,0.0054188000000000005,0.06495,0.098703,0.10687999999999999,0.10350999999999999,0.09357,0.15259,0.12484,0.07412,0.054659000000000006,-0.00032487,0.049242,-0.01656,-0.1329,-0.07832,0.018762,-0.15125999999999998,-0.12044,-0.19142,-0.37473,-0.34713,-0.3498,-0.49178,-0.45564,-0.47158,-0.50567,-0.37174,-0.36815,-0.37987,-0.21688000000000002,-0.22854000000000002,-0.12579,-0.0093296,0.08165,0.19196,0.20915999999999998,0.26189,0.25026,0.28442,0.31881,0.27304,0.37385999999999997,0.3122,0.22444,0.28531999999999996,0.32515,0.25993,0.24478000000000003,0.27981999999999996,0.34946,0.41106000000000004,0.52163,0.46376000000000006,0.41131,0.32156,0.46488999999999997,0.59351,0.58077,0.66233,0.65115,0.5825600000000001,0.66788,0.59183,0.58603,0.6393399999999999,0.6200899999999999,0.70044,0.6977800000000001,0.61365,0.5311899999999999,0.51631,0.55387,0.41836999999999996,0.43481000000000003,0.39491,0.3654,0.35631,0.18128,0.33908,0.32011,0.37423,0.36605,0.26899999999999996,0.32185,0.24270999999999998,0.38933,0.53651,0.56393,0.80912,0.77644,1.0505,1.3146,1.242,1.0118,0.61839,0.44891000000000003,0.47341000000000005,0.41981999999999997,0.43406000000000006,0.28984,0.04687,-0.20798000000000003,-0.48702,-0.57127,-0.6026699999999999,-0.48618999999999996,-0.45493,-0.49563999999999997,-0.52108,-0.56384,-0.52047,-0.62175,-0.50357,-0.42538000000000004,-0.57175,-0.44725,-0.08771799999999999,0.64975,1.2339,1.1476,1.1216,1.1067,0.88034,0.30114,0.48168,0.98313,0.6607,-1.8944
1,-1.0209,-1.9194,-2.3713,-2.9101,-2.7756,-2.7696,-2.5233,-2.2463,-1.7387,-1.0952,-0.80837,-0.7204699999999999,-0.53698,-0.15039,0.16404000000000002,0.16619,0.17479,0.09791699999999999,0.15945,0.25006999999999996,0.28596,0.30787,0.18355,0.23219,0.23772,0.23699,0.25659,0.13935999999999998,0.14456,0.18292,0.12936,0.14540999999999998,0.11424000000000001,0.084893,0.13163,0.14711,0.09727899999999999,0.013343,0.039401,0.088574,0.075632,0.027302,0.019262,0.029238,-0.027904,-0.0623,-0.075563,-0.090041,-0.055011000000000004,-0.016503999999999998,-0.056211000000000004,-0.038187,-0.0034951,-0.064447,-0.0056837,-0.0039030000000000002,-0.0027334,0.08929,0.0409,0.068682,0.19355,0.21043,0.20273,0.21239,0.2746,0.34915999999999997,0.39892,0.47017,0.43191,0.39618000000000003,0.39851,0.44545,0.49063999999999997,0.40481,0.40993,0.46331000000000006,0.38664,0.40846,0.43473999999999996,0.44992,0.49003,0.45238,0.5212100000000001,0.47839,0.38945,0.52566,0.57713,0.47193999999999997,0.4969,0.5655,0.59132,0.63312,0.53459,0.55084,0.66045,0.6432100000000001,0.68091,0.66867,0.68111,0.73146,0.7442,0.73678,0.77281,0.83526,0.8002600000000001,0.8315799999999999,0.8994,0.91948,0.9013899999999999,0.90064,0.9533299999999999,0.95221,0.91906,0.91341,0.9626299999999999,0.90674,0.82557,0.8325600000000001,0.70429,0.55716,0.56722,0.64782,0.7393,0.60765,0.4374,0.39082,0.22246,0.1511,0.16363,0.27648,0.18807000000000001,-0.29664,-0.73612,-1.357,-1.9517,-2.3118,-3.4171,-3.4938,-4.1844,-2.7618
5,-0.99618,-3.877,-4.7675,-4.5994,-3.6791,-2.4245,-1.518,-1.4559,-0.55625,-0.15219000000000002,-0.18067,-0.2473,-0.22295,-0.0095069,-0.13781,-0.27173,-0.26809,-0.23209000000000002,-0.26439,-0.26404,-0.27516,-0.39985,-0.45616999999999996,-0.44367,-0.39613000000000004,-0.46563999999999994,-0.39993,-0.44085,-0.51735,-0.44803999999999994,-0.5554,-0.54037,-0.51918,-0.65745,-0.72333,-0.7286699999999999,-0.66895,-0.61222,-0.53579,-0.55991,-0.56504,-0.63229,-0.33285,-0.31001999999999996,-0.22857,-0.078475,-0.094465,-0.023084999999999998,0.00014251,-0.030604000000000003,-0.086971,-0.047531,0.054185000000000004,-0.034710000000000005,-0.00056243,0.05171,0.14959,0.06468099999999999,0.035403,0.0044128,0.052685,0.14090999999999998,0.11940999999999999,0.15797,0.24272,0.37759000000000004,0.20323,0.34096,0.43023,0.56224,0.53574,0.52387,0.60533,0.65645,0.6460600000000001,0.73853,0.7975800000000001,0.66054,0.65446,0.6741699999999999,0.63595,0.62612,0.55455,0.49768999999999997,0.61153,0.62149,0.53078,0.46718000000000004,0.35015999999999997,0.37418,0.2798,0.36048,0.37851999999999997,0.25706,0.3454,0.40957,0.46481000000000006,0.63781,0.8981299999999999,1.0068,1.176,1.3426,1.6417,2.0279,1.9744,1.8765,1.9708,1.6189,1.5596,1.2131,0.77479,0.41393,0.007210300000000001,-0.24303000000000002,-0.32454,-0.14272,-0.18542999999999998,-0.38137,-0.41896000000000005,-0.39987,-0.2066,-0.29435,-0.36394,-0.25949,-0.33321,-0.13068,-0.24739,-0.20147,-0.10244,0.0049079,0.73341,1.5,1.3058,1.0537,0.8262299999999999,0.27164,-0.12766,-0.21618,0.50426,-0.073029
1,0.17418,0.35565,0.10468,-0.43094,-0.862,-1.0503,-1.3021,-1.4762,-1.4543,-1.2016,-0.92774,-0.71055,-0.63063,-0.54881,-0.23869,-0.059130999999999996,-0.04627,-0.065945,-0.06267,-0.062895,-0.067076,-0.030524000000000003,-0.07612200000000001,-0.08669500000000001,-0.095782,-0.096647,-0.10131,-0.10539000000000001,-0.10786,-0.14629,-0.12344000000000001,-0.13355999999999998,-0.12825999999999999,-0.13878,-0.18137999999999999,-0.21745,-0.2011,-0.15692,-0.23631999999999997,-0.24043,-0.22894,-0.25011,-0.23636999999999997,-0.32666999999999996,-0.29814,-0.30419,-0.31466,-0.3382,-0.36759000000000003,-0.39795,-0.37644,-0.3874,-0.39771999999999996,-0.38988,-0.40421999999999997,-0.35078000000000004,-0.3715,-0.38471,-0.29845,-0.33285,-0.3244,-0.31121,-0.23565,-0.21883000000000002,-0.23301999999999998,-0.21716,-0.17612,-0.14231,-0.12537,-0.09020800000000001,-0.041756,-0.06264199999999999,-0.062207000000000005,-0.0093574,-0.006596800000000001,0.0083074,0.056476,0.048246,0.029367,0.049389999999999996,0.035771,0.036453,0.059113,0.033915,0.023011,0.057934000000000006,0.060463,0.09132699999999999,0.053457000000000005,0.012435,0.034751,0.052452,0.077793,0.10645,0.05645599999999999,0.10137,0.1212,0.12294000000000001,0.11732000000000001,0.13835999999999998,0.17825,0.20446,0.21719000000000002,0.21886999999999998,0.26687,0.28789000000000003,0.34612,0.39448,0.48528000000000004,0.63288,0.68761,0.84183,0.96225,0.97372,1.0916,1.2701,1.4544,1.5721,1.649,1.8219,2.0797,2.3158,2.4579,2.6022,2.7483,2.7647,2.4874,2.0482,1.8098,1.1943,0.44542,-0.052195000000000005,-0.42996,-0.5464600000000001,-1.081,-2.1996,-2.8975,-3.5377,-3.7227,-3.4471
1,-0.39518000000000003,-0.89285,-1.3031,-1.6006,-1.8039,-2.0757,-2.2635,-2.2424,-2.1272,-1.9165,-1.5326,-1.0219,-0.54992,-0.27414,-0.2275,-0.18677,0.07485599999999999,0.33916999999999997,0.3823,0.38016,0.41728000000000004,0.43118,0.4291,0.39492,0.3679,0.42668,0.4972,0.48753,0.44336000000000003,0.42804,0.47175,0.48353999999999997,0.41846000000000005,0.4397,0.47721,0.41206000000000004,0.38756,0.41648,0.43733,0.46303,0.43896999999999997,0.39336,0.40923000000000004,0.40595,0.39321999999999996,0.44898000000000005,0.44663,0.40460999999999997,0.42949,0.41103,0.36657,0.40044,0.40675,0.35136999999999996,0.34875,0.3745,0.3807,0.39525,0.37776,0.34023000000000003,0.35594000000000003,0.36219,0.40246,0.52061,0.48095,0.39141,0.45425,0.46093999999999996,0.44487,0.48703,0.46148999999999996,0.45929,0.52736,0.5368,0.5098600000000001,0.53535,0.57104,0.57762,0.57471,0.54682,0.51341,0.51693,0.53104,0.5444,0.5484600000000001,0.52586,0.54227,0.57916,0.5641,0.54776,0.52859,0.48441000000000006,0.49278,0.53701,0.54368,0.5465899999999999,0.54187,0.50122,0.49025,0.48595,0.43712,0.46755,0.54013,0.46617,0.41463999999999995,0.49444,0.52569,0.5433399999999999,0.56121,0.54242,0.54457,0.52568,0.49388000000000004,0.42472,0.36252,0.40871999999999997,0.4521,0.53003,0.59238,0.48146000000000005,0.38387,0.29755,0.12287000000000001,0.008748899999999999,-0.0022111,0.045870999999999995,0.0052446,-0.20374,-0.5514600000000001,-1.0739,-1.6323,-2.1687,-2.873,-3.5901,-3.9321,-3.878,-3.2802,-2.3822,-1.8267,-0.92179
1,-0.47898999999999997,-1.328,-1.963,-2.5419,-2.8421,-2.9779,-2.9619999999999997,-2.8397,-2.7373,-2.5031,-2.0853,-1.6532,-1.3053,-1.0454,-0.91258,-0.8429200000000001,-0.6260600000000001,-0.31009000000000003,-0.14490999999999998,-0.11914000000000001,-0.10368,-0.063717,-0.017491,-0.050772000000000005,-0.11625999999999999,-0.066099,0.0037086999999999997,-0.031748,-0.02812,-0.0028081,-0.041951,0.0012202,0.022963,-0.038962000000000004,-0.011637,-0.033946,-0.10409000000000002,-0.03742,0.030049,0.030669,0.063436,0.044995,-0.0069699,0.034908999999999996,0.037126,0.015768,0.065217,0.019159,-0.028116000000000002,-0.0034262,-0.047632,-0.051084,0.00047455,-0.007767100000000001,-0.00755,0.007096600000000001,-0.024229,-0.037076,-0.021507,-0.036413,-0.027022000000000004,-0.00052792,-0.0043713,0.016886,0.048976,0.075754,0.11735,0.14534,0.18134,0.24464,0.27699999999999997,0.29705,0.35335,0.39504,0.45645,0.54811,0.5441600000000001,0.5251,0.5602199999999999,0.5475399999999999,0.54466,0.6079100000000001,0.66938,0.69831,0.6823600000000001,0.65883,0.71019,0.7408600000000001,0.68555,0.70406,0.73426,0.75648,0.88335,0.87902,0.7991,0.8680399999999999,0.8611200000000001,0.7852100000000001,0.82095,0.8567600000000001,0.8730399999999999,0.92604,0.91317,0.87449,0.94796,1.0065,0.95891,0.9275,0.9412299999999999,0.9422200000000001,0.9189200000000001,0.9294,0.95139,0.8984200000000001,0.8380799999999999,0.82125,0.82981,0.89499,0.93519,0.907,0.93361,0.9821700000000001,0.9204700000000001,0.85634,0.9561,1.0933,1.0646,0.9074200000000001,0.68015,0.29174,-0.25003000000000003,-0.77946,-1.3133,-1.9429,-2.4902,-2.7089,-2.3834,-1.6403,-0.85167,0.052443
5,-0.16033,-2.7501,-4.2595,-4.4432,-3.9488,-3.1497,-1.8632,-1.4682,-1.2296,-0.44909,-0.18345,-0.15872999999999998,-0.090861,-0.1566,-0.18878,-0.20083,-0.23362,-0.2109,-0.26632,-0.27107,-0.29575999999999997,-0.27293,-0.28218000000000004,-0.25632,-0.36223,-0.39728,-0.50629,-0.55801,-0.57967,-0.57748,-0.57188,-0.70185,-0.8362700000000001,-0.8043899999999999,-0.72214,-0.784,-0.7955300000000001,-0.80532,-0.69508,-0.7429399999999999,-0.69602,-0.648,-0.54423,-0.41223999999999994,-0.30480999999999997,-0.17249,-0.17353,-0.08691,-0.1117,-0.05343099999999999,0.032394,0.0040525,0.12555,0.042688,0.047347,0.085525,0.17798,0.22701999999999997,0.26921999999999996,0.17608,0.27232,0.27426999999999996,0.27382,0.25977,0.34678000000000003,0.46345,0.46653,0.47362,0.47966000000000003,0.47728000000000004,0.51612,0.66569,0.5352100000000001,0.56643,0.64635,0.59375,0.5040899999999999,0.51343,0.5667800000000001,0.51798,0.49546999999999997,0.56439,0.46635,0.43066000000000004,0.38439,0.34515999999999997,0.30629,0.25365,0.28212,0.36705,0.33651,0.26391,0.20817,0.18062,0.26364,0.39284,0.54127,0.8225100000000001,0.88471,1.0732,1.2682,1.5784,1.7334,1.7831,1.7323,1.7538,1.4783,1.3428,1.1775,0.8245,0.49918999999999997,0.070947,-0.29408,-0.40254,-0.36732,-0.3448,-0.40576999999999996,-0.38561,-0.23543000000000003,-0.29469,-0.38025,-0.43937,-0.40214,-0.35907,-0.38281,-0.5100100000000001,-0.37939,-0.26993,-0.11116,0.5290699999999999,1.1199,1.0948,1.449,1.5645,1.4059,1.0894,1.0061,1.3189,1.7029,-0.58891
1,0.31166,-0.54085,-1.5998,-2.5582,-3.3489999999999998,-3.5138,-3.1539,-2.59,-1.9259,-1.3104,-1.1925,-1.048,-0.61144,-0.1981,-0.10267000000000001,-0.083088,-0.12005999999999999,-0.14686,-0.11332,-0.073647,-0.14106,-0.094062,-0.063441,-0.088413,-0.1155,-0.085103,-0.15120999999999998,-0.09998,-0.15579,-0.16745,-0.21631999999999998,-0.20295,-0.18677,-0.16907,-0.20421,-0.23913,-0.27413000000000004,-0.24745999999999999,-0.30301,-0.35803,-0.38579,-0.28171999999999997,-0.36191,-0.36439,-0.31564000000000003,-0.3437,-0.39219,-0.43817,-0.4146,-0.35081999999999997,-0.37512,-0.29247,-0.28679,-0.22865,-0.11595,-0.16710999999999998,-0.1274,-0.012975,0.055563999999999995,0.13047,0.17240999999999998,0.23355,0.26199,0.22956,0.25171,0.33186,0.40536,0.42643000000000003,0.37295,0.29398,0.39000999999999997,0.41794,0.42046000000000006,0.47335,0.48125,0.36166,0.36998000000000003,0.49138000000000004,0.43601,0.5421199999999999,0.5468,0.53638,0.5777100000000001,0.5594899999999999,0.5998,0.6523,0.64652,0.6409600000000001,0.70862,0.70978,0.77818,0.77512,0.87226,0.8568100000000001,0.9065700000000001,0.96755,0.99955,1.0114,1.0562,1.0523,1.0634,1.0612,1.0398,1.1581,1.0513,1.0714,1.0638,1.0539,1.028,1.0404,0.9916299999999999,1.0259,0.9611,0.97465,0.8992100000000001,0.93663,0.96145,0.88708,0.87584,0.70949,0.50926,0.41618,0.43987,0.49673999999999996,0.40385,0.2997,0.31774,0.2217,0.39584,0.69825,0.82699,0.55974,-0.12992,-0.81517,-1.5138,-2.1664,-3.1186,-3.4233,-2.8326,-1.7063
5,2.5642,1.6133,-1.0952,-2.5033,-3.9411,-4.112,-3.0459,-1.8263,-1.4754,-0.87202,0.11603,0.20517,0.21609,0.029636000000000003,0.1378,-0.080807,-0.026974,0.030211000000000002,0.019038,-0.011212,-0.14642,-0.18697,-0.15845,-0.40963,-0.36153,-0.4324,-0.45966999999999997,-0.53925,-0.63494,-0.75498,-0.5988100000000001,-0.84077,-0.8072,-1.0288,-1.054,-0.9221799999999999,-1.094,-1.043,-1.0946,-0.9636899999999999,-1.087,-0.9203,-0.77628,-0.6440100000000001,-0.52604,-0.42133000000000004,-0.30396,-0.25825,-0.25265,0.0018364000000000002,-0.051622,-0.021419,-0.045144,0.09009099999999999,0.0544,0.09188500000000001,0.20298,0.17631,0.17145,0.25727,0.35980999999999996,0.08468400000000001,0.24584,0.26225,0.30864,0.35172,0.36711,0.29114,0.36079,0.39568000000000003,0.42346999999999996,0.47615,0.46497,0.61546,0.5917,0.57001,0.69311,0.51963,0.64863,0.6379199999999999,0.52168,0.53096,0.3892,0.49133000000000004,0.50973,0.38326,0.41207,0.39416,0.32893,0.49893000000000004,0.32715,0.24428000000000002,0.37111,0.35522,0.30663,0.16367,0.2123,0.33776,0.3884,0.38156999999999996,0.5986899999999999,0.8681700000000001,1.1522,1.2776,1.3575,1.4839,2.0129,2.3737,2.2447,2.2356,1.7261,1.6980000000000002,1.4571,1.1035,0.5430699999999999,-0.1256,-0.50578,-0.7158800000000001,-0.63572,-0.78899,-0.8125399999999999,-0.8195100000000001,-0.6843,-0.7690899999999999,-0.65264,-0.77187,-0.83005,-0.8553200000000001,-0.7388600000000001,-0.7447699999999999,-0.76042,-0.64494,-0.1863,0.21622,0.18122,0.80416,1.1248,1.5059,0.8977200000000001,0.81472
5,-1.6399,-4.3581,-5.08,-4.7755,-3.7727,-2.362,-1.5185,-1.3198,-0.39789,-0.099031,-0.22755,-0.16261,-0.10845999999999999,-0.18606,-0.11464,-0.14293,-0.1295,-0.077821,-0.25545999999999996,-0.23715999999999998,-0.30725,-0.34985,-0.4261,-0.25259000000000004,-0.39644,-0.35752,-0.27742,-0.44409,-0.49977,-0.60165,-0.54351,-0.64074,-0.74897,-0.6892699999999999,-0.7833399999999999,-0.71105,-0.81252,-0.71122,-0.51682,-0.61464,-0.5101399999999999,-0.43832,-0.3855,-0.21119000000000002,-0.08985399999999999,-0.027807,-0.19785,-0.079202,0.033885000000000005,-0.013922,0.10987000000000001,-0.08584,0.12688,0.061967999999999995,0.030452,0.13041,0.0053971,0.025384,-0.0022404,0.21904,0.14124,0.12103,0.26377,0.16742,0.19835,0.22953,0.33142,0.43182,0.37409000000000003,0.46384,0.51008,0.59555,0.60318,0.5806600000000001,0.65481,0.56362,0.53546,0.56828,0.51657,0.5021399999999999,0.5233399999999999,0.52396,0.45565,0.4103,0.35106,0.44043000000000004,0.34393,0.43375,0.44706999999999997,0.37994,0.39496,0.36341999999999997,0.39166999999999996,0.44319,0.34989000000000003,0.35064,0.42751000000000006,0.45501,0.5368,0.52651,0.66645,0.78588,0.92561,1.3099,1.5549,1.5024,1.3241,0.93761,0.8416899999999999,0.7198,0.7077399999999999,0.81516,0.65808,0.29357,-0.062801,-0.11042,-0.13632,-0.082149,-0.17121,-0.095589,-0.11567999999999999,-0.17978,-0.065841,-0.08882899999999999,-0.051637999999999996,0.017747,-0.07527400000000001,0.018921,0.23623000000000002,0.8282700000000001,1.5388,1.4421,1.3229,1.1797,0.9002700000000001,0.41923,0.78786,1.515,1.2875,-1.2548
1,-0.14684,-1.45,-2.2737,-2.9548,-2.9517,-3.0086,-2.8756,-2.5946,-2.0791,-1.534,-1.0419,-0.67,-0.61853,-0.55285,-0.12573,0.33357,0.5032800000000001,0.48482,0.42328999999999994,0.48023999999999994,0.52755,0.4862,0.54324,0.5202899999999999,0.44848999999999994,0.44664,0.4133,0.434,0.4862,0.43638000000000005,0.41968999999999995,0.48123999999999995,0.38144,0.39602,0.45747,0.31739,0.37956,0.44492,0.38506,0.39639,0.3955,0.32659,0.29629,0.30551,0.25124,0.31272,0.31644,0.20269,0.16638,0.10638,0.082361,0.10864000000000001,0.097217,0.076248,0.025852999999999998,0.0033626,0.00087202,-0.022724,0.011106,-0.053739,-0.058549000000000004,0.016097,-0.028067,-0.04133,-0.055952999999999996,-0.067565,-0.045077,-0.028676,0.022883,0.04112,0.00087202,0.016658000000000003,0.041779000000000004,0.075644,0.19253,0.23001,0.1913,0.27519,0.35967,0.35291999999999996,0.39418000000000003,0.401,0.45592,0.50572,0.4651,0.52418,0.49912,0.52837,0.64681,0.68448,0.67043,0.6339100000000001,0.67124,0.6907300000000001,0.7228600000000001,0.69025,0.66309,0.72801,0.73941,0.76031,0.73552,0.7096399999999999,0.73679,0.77468,0.77973,0.78161,0.84109,0.84444,0.8660200000000001,0.8478700000000001,0.8322,0.8687,0.8449200000000001,0.8658799999999999,0.8106800000000001,0.65974,0.5383899999999999,0.48383000000000004,0.5713699999999999,0.6128100000000001,0.47018000000000004,0.37648000000000004,0.33278,0.2566,0.13305,0.17939000000000002,0.38069000000000003,0.32559,0.14634,-0.18609,-0.72411,-1.3606,-2.0271,-2.7634,-3.5265,-3.7299,-3.1608,-1.7815,-1.1904,0.11925
5,-1.3256,-2.6955,-3.0475,-3.8353,-3.7509,-3.2875,-2.2373,-1.7307,-1.5199,-1.1158,-0.88782,-0.81382,-0.86651,-0.90653,-0.7719600000000001,-0.8174600000000001,-0.76907,-0.7996300000000001,-0.77061,-0.72743,-0.73839,-0.76632,-0.71278,-0.6241800000000001,-0.6803,-0.61558,-0.70182,-0.65364,-0.7006,-0.67701,-0.5726399999999999,-0.65893,-0.62251,-0.66786,-0.6542399999999999,-0.6198899999999999,-0.56011,-0.57545,-0.63983,-0.4864,-0.40024,-0.43538000000000004,-0.35278000000000004,-0.32123,-0.2602,-0.19227,-0.24831,-0.12265,-0.19080999999999998,-0.094965,-0.12772,-0.19696,-0.10847000000000001,-0.059249,-0.095113,-0.16554000000000002,-0.079874,-0.044543,-0.069662,-0.021439,-0.010198,-0.055476,-0.027657,0.030251,0.088253,0.15414,0.10564000000000001,0.21916999999999998,0.25299,0.19796,0.30266,0.30461,0.40604,0.38761999999999996,0.35964,0.45779,0.49593999999999994,0.5557300000000001,0.49468,0.48438000000000003,0.60297,0.54693,0.47612,0.54324,0.5797,0.52352,0.4384,0.49233000000000005,0.53086,0.48761000000000004,0.49916000000000005,0.5576399999999999,0.55394,0.62087,0.74193,0.8345600000000001,0.96739,1.1734,1.2571,1.3722,1.7098,1.8775,1.9945,1.8529,1.8169,1.6938,1.5893,1.4164,1.2068,1.1271,0.83244,0.54806,0.26761,0.29805,0.27239,0.23088000000000003,0.34653,0.38365,0.30689,0.29905,0.31643000000000004,0.38473,0.368,0.39075,0.3968,0.46493999999999996,0.4513,0.49372,0.68894,1.3264,1.7822,1.6176,1.1633,0.5557,0.031421,-0.36969,-0.25597,-0.0079218,0.40925,-0.089887
1,1.0489,0.13235,-0.92656,-1.6408,-2.0059,-2.4763,-2.6502,-2.6227,-2.207,-1.5856,-1.0686,-0.71791,-0.5296,-0.50962,-0.15467,0.19430999999999998,0.35153,0.38274,0.33696,0.39675,0.32803000000000004,0.35191,0.29275999999999996,0.3303,0.33671,0.30625,0.33824,0.32753000000000004,0.29100000000000004,0.24033000000000002,0.3055,0.26955999999999997,0.23471999999999998,0.26954,0.30937,0.28391,0.26546,0.28362,0.22685,0.24522,0.23792,0.14868,0.223,0.21161,0.11515999999999998,0.099647,0.069645,0.10661,0.1789,0.086612,0.012648999999999999,0.060257000000000005,0.042001,0.16367,0.064693,-0.06289,0.027843,-0.04535,-0.064792,-0.0066977,-0.032404,-0.014856999999999999,0.0021945,-0.029925999999999998,0.081411,0.13189,0.097653,0.15006,0.20344,0.21575,0.23792,0.30474,0.2715,0.25792,0.26961999999999997,0.32316999999999996,0.35039000000000003,0.33688,0.44783,0.48268,0.46319,0.50812,0.5025,0.55329,0.5201399999999999,0.537,0.53642,0.5242399999999999,0.57853,0.55647,0.62088,0.58182,0.5774100000000001,0.53014,0.5384899999999999,0.65809,0.59896,0.5664399999999999,0.66199,0.63439,0.57582,0.65486,0.69982,0.6685300000000001,0.75383,0.71217,0.72832,0.8023399999999999,0.69163,0.74759,0.77857,0.73044,0.78125,0.7506,0.8113199999999999,0.79819,0.79278,0.6856,0.499,0.6372,0.62088,0.5957399999999999,0.58086,0.4552,0.36589,0.21051999999999998,0.13745,0.4204,0.4655,0.052221000000000004,-0.39284,-0.9903200000000001,-1.6723,-2.3669,-3.2833,-3.9653,-4.4327,-3.5425,-2.89,-1.2587
5,-0.4963,-2.9546,-3.9365,-4.2805,-3.8698,-3.3978,-2.1992,-1.2974,-1.2636,-0.58568,-0.21245,-0.23939000000000002,-0.25216,-0.30174,-0.2441,-0.22274000000000002,-0.25061,-0.44519,-0.43113999999999997,-0.33659,-0.47463,-0.45821999999999996,-0.48321000000000003,-0.48682,-0.51476,-0.5379,-0.5174300000000001,-0.65555,-0.59585,-0.5949399999999999,-0.70319,-0.6374,-0.65042,-0.66638,-0.71406,-0.66838,-0.5230899999999999,-0.64681,-0.58516,-0.61254,-0.593,-0.35081,-0.34715,-0.29659,-0.115,-0.16072999999999998,-0.08587,-0.027975,-0.031695999999999995,-0.0079291,-0.049076,0.037074,-0.023131,0.013677000000000002,-0.0086539,-0.028183999999999997,0.045692,-0.020579,0.018723,0.0014849,0.017098,0.16713,0.098222,0.091539,0.13679000000000002,0.10522999999999999,0.152,0.21691,0.21859,0.34147,0.27468000000000004,0.3857,0.38199,0.28271999999999997,0.39339,0.36315,0.44561000000000006,0.39652,0.39843,0.43293999999999994,0.4438,0.33971,0.36995,0.38966,0.36964,0.31776,0.27519,0.31434,0.42139,0.45358000000000004,0.44578999999999996,0.4146,0.4015,0.2889,0.5180100000000001,0.65153,0.8349,1.0089,1.1982,1.3854,1.5126,1.8519999999999999,2.1034,2.0897,1.9776,1.9815,1.7544,1.5782,1.3459,1.0582,0.75422,0.25565,-0.09424400000000001,-0.16025,-0.10875,-0.22580999999999998,-0.13683,-0.21995,-0.1874,-0.18785,-0.19659000000000001,-0.09341,-0.11592999999999999,-0.18182,-0.077882,-0.012079000000000001,-0.11582,-0.092057,0.096919,0.52874,1.0075,0.9922,1.1342,1.1374,1.0327,0.9500700000000001,0.8290299999999999,1.0246,1.1656,-1.1245
5,-0.7245199999999999,-3.1532,-4.1841,-4.2699,-3.5791,-2.6474,-1.6863,-1.4769999999999999,-1.1528,-0.4467,-0.36046,-0.38622,-0.37868,-0.38432,-0.3451,-0.3536,-0.39762,-0.4085,-0.34258,-0.42196999999999996,-0.48485,-0.47594,-0.45513000000000003,-0.49905,-0.57323,-0.53881,-0.61831,-0.60283,-0.71731,-0.7517199999999999,-0.8220200000000001,-0.86193,-0.86874,-0.8719,-0.97956,-0.8452,-0.88687,-0.9037700000000001,-0.81598,-0.8818,-0.8235600000000001,-0.75357,-0.6875,-0.62259,-0.49486,-0.32352,-0.24575999999999998,-0.16677999999999998,-0.12367,-0.16028,-0.045131,-0.023587999999999998,0.028105,-0.10047,-0.07344500000000001,0.056018,0.018185,0.04358,0.012582,0.059611000000000004,0.092579,0.062769,0.11155999999999999,0.27003,0.20576999999999998,0.19534,0.32785,0.30446,0.32099,0.3146,0.41085,0.46985,0.61846,0.56392,0.54655,0.54667,0.53554,0.54391,0.59967,0.4742,0.44456999999999997,0.5048600000000001,0.48268,0.48778,0.47712,0.53582,0.36172,0.39454,0.36696,0.45733999999999997,0.37521,0.34715,0.49058,0.33473,0.39976,0.5179600000000001,0.78965,0.92896,1.0503,1.0891,1.4299,1.6654,1.7937,1.7974,1.7837,1.7335,1.5458,1.328,1.1696,0.9540799999999999,0.6343,0.39883,0.049127,-0.13565,-0.2083,-0.23275,-0.09437100000000001,-0.17847000000000002,-0.21076999999999999,-0.068289,-0.067399,-0.10534,-0.09185,0.0012102,-0.14828,-0.071948,0.013128,0.031069,0.14362,0.42083000000000004,0.94416,1.1519,0.9863799999999999,1.1646,1.2721,1.0648,1.1498,1.3717,2.0495,1.1947
1,2.0976,1.3364,0.099275,-0.69509,-1.8287,-2.487,-2.5155,-2.38,-1.989,-1.561,-1.1282,-0.6339600000000001,-0.42646999999999996,-0.48476,-0.3019,0.11619000000000002,0.49503,0.75198,0.7336199999999999,0.68047,0.7754800000000001,0.77732,0.71846,0.64787,0.59519,0.68513,0.7225199999999999,0.6554,0.6552899999999999,0.6643899999999999,0.6359899999999999,0.64353,0.67532,0.6560699999999999,0.59304,0.57653,0.57516,0.5284,0.5079899999999999,0.5178699999999999,0.5150600000000001,0.48021,0.40015,0.37876,0.39486,0.3601,0.36885,0.36016,0.27466999999999997,0.25246999999999997,0.23978000000000002,0.17264000000000002,0.15447,0.17633,0.14739000000000002,0.066851,0.014246,-0.01015,-0.06311,-0.086548,-0.08591599999999999,-0.12972999999999998,-0.16685,-0.19887,-0.22614,-0.1844,-0.1448,-0.14994000000000002,-0.16605,-0.14866,-0.075285,-0.080055,-0.10595,-0.028294999999999997,0.018212,0.085865,0.13444,0.045127,0.09739600000000001,0.26042,0.31473,0.36136,0.38318,0.41753,0.53509,0.61973,0.65583,0.64855,0.6552899999999999,0.7259800000000001,0.70716,0.6440600000000001,0.69535,0.7429600000000001,0.7048399999999999,0.70706,0.7754800000000001,0.79133,0.7289800000000001,0.69399,0.75545,0.8061,0.74727,0.71817,0.75545,0.74261,0.74043,0.75741,0.73542,0.70758,0.6714600000000001,0.64715,0.55512,0.3996,0.38482,0.37396999999999997,0.21456999999999998,0.074504,-0.047251999999999995,-0.14966,-0.18608,-0.31151,-0.53279,-0.64431,-0.64683,-0.76175,-1.0699,-1.4674,-1.969,-2.5462,-2.9504,-3.1369,-3.2110000000000003,-3.1963,-3.045,-2.531,-1.6885,-0.6258600000000001,0.50243,0.8861
5,0.53004,-2.1009,-3.3297,-4.2146,-3.7061,-3.0239,-2.0785,-0.80148,-0.17926,-0.19422,0.31135999999999997,0.64668,0.80901,0.7728,0.65368,0.76763,0.79247,0.79861,0.80377,0.60024,0.65652,0.82644,0.61187,0.5855899999999999,0.52861,0.50466,0.73435,0.64025,0.38040999999999997,0.28165999999999997,0.034695,0.18041,0.72625,0.8132699999999999,0.78622,0.73055,0.67006,0.75847,0.8491799999999999,0.88507,0.81197,0.86798,0.9640200000000001,0.96567,0.9385899999999999,0.82226,0.99316,1.0781,1.0512,0.9847899999999999,1.06,1.0043,0.8964799999999999,0.8406600000000001,0.68743,0.4467,0.47131000000000006,0.58472,0.59653,0.48103,0.38451,0.34264,0.32588,0.31326,0.23747,0.28476999999999997,0.17867,-0.019726,-0.1576,-0.14227,0.012683,0.12070999999999998,-0.11839000000000001,-0.19434,-0.23545,-0.20031,-0.062155999999999996,-0.18550999999999998,-0.078832,-0.11182,-0.26261,-0.18382,-0.23626,-0.23539000000000002,-0.24834,-0.3323,-0.34756,-0.38402,-0.39871,-0.3967,-0.37724,-0.70173,-0.6270399999999999,-0.34735,-0.37305,-0.098634,0.0040309,0.10815999999999999,0.40287,0.6453899999999999,1.21,1.4486,1.431,1.3111,1.1014,0.87895,0.6686,0.32591,0.033267000000000005,-0.36314,-0.7876,-1.0733,-1.2525,-1.1603,-1.2238,-1.2238,-1.2966,-1.3087,-1.2774,-1.1549,-1.0656,-1.0863,-1.0395,-1.0539,-0.97216,-1.0341,-0.95088,-0.63067,-0.42351000000000005,0.52385,1.1354,1.2148,1.3156,0.71227,0.086357,-0.78657,-1.2282,-1.2541,-0.5331100000000001,-2.1093
5,0.20984,-1.3225,-2.1701,-3.2881,-4.1518,-4.1769,-3.0305,-1.5243,-0.93847,-0.62002,-0.076212,0.031715,0.053127999999999995,0.22036,0.14749,0.2011,0.30684,0.24455,0.088825,0.20287,0.27757,0.020097,0.15639,0.28093,0.31565,-0.07918700000000001,-0.18914,0.06866699999999999,0.18461,-0.066761,-0.022408,-0.058321000000000005,-0.13299,-0.05310700000000001,-0.06333899999999999,-0.015885,-0.098393,0.0076592,0.11775999999999999,0.12476,0.00080193,-0.07885700000000001,0.23129,0.14637,0.20145,0.27481,0.15508,0.24594000000000002,0.23699,0.2118,0.17099,0.26177,0.27574,0.32734,0.24653000000000003,0.17397,0.26137,0.18578,0.14740999999999999,0.20634,0.14110999999999999,0.23031,0.24689,0.35212,0.50517,0.30627,0.267,0.1678,0.25225,0.45625,0.47329,0.47339,0.49112,0.55679,0.5360699999999999,0.64076,0.48328999999999994,0.43705,0.56858,0.60756,0.48148,0.55037,0.49023,0.57848,0.37033,0.27716,0.38466999999999996,0.38051,0.32432,0.23967,0.21334,0.17740999999999998,0.1675,0.27847,0.20042000000000001,0.22755,0.23886999999999997,0.3765,0.46024,0.77505,1.2108,1.3713,1.4767,1.5351,1.7785,1.9474,1.9377,2.0122,1.786,1.2363,0.8806200000000001,0.61183,0.41212,-0.092183,-0.69606,-0.85245,-0.79685,-0.74987,-0.65723,-0.7848,-0.9615799999999999,-0.72936,-0.5776,-0.80588,-0.83168,-0.78103,-0.7560899999999999,-0.56894,-0.58723,-0.49294,0.20045,1.2572,1.5406,0.86992,-0.29258,-1.6055,-2.5203,-2.8795,-2.0265,-1.4696
5,-1.0905,-2.4439,-2.6837,-3.2897,-3.3343,-3.3836,-2.7604,-1.7604,-1.3616,-1.1366,-0.7962199999999999,-0.61965,-0.65567,-0.7005399999999999,-0.6305,-0.66766,-0.6269,-0.62188,-0.68611,-0.6141,-0.6632100000000001,-0.71278,-0.74217,-0.7713,-0.6448,-0.62802,-0.56942,-0.55558,-0.70102,-0.6544,-0.5838,-0.60448,-0.7452300000000001,-0.75521,-0.63043,-0.7279899999999999,-0.69152,-0.57257,-0.60816,-0.64404,-0.66003,-0.70325,-0.5896100000000001,-0.5083300000000001,-0.4209,-0.4093,-0.43515,-0.33784000000000003,-0.36172,-0.3039,-0.33754,-0.38781,-0.40799,-0.37654,-0.30056,-0.3626,-0.40047,-0.36139,-0.40573000000000004,-0.34707,-0.34458,-0.29086999999999996,-0.24665,-0.27135,-0.18586,-0.15454,-0.19105999999999998,-0.17017000000000002,-0.19988,-0.09842000000000001,0.027874,0.037419,0.11260999999999999,0.11525999999999999,0.18928,0.16007000000000002,0.22094,0.29600000000000004,0.258,0.30346999999999996,0.35409,0.41899,0.43754,0.42408,0.44988999999999996,0.40445,0.46656000000000003,0.4889,0.51577,0.45274,0.45713000000000004,0.59054,0.65694,0.81263,0.8782,1.0206,1.2678,1.3596,1.5383,1.6964,1.7913,1.8472,1.8035,1.7548,1.5643,1.5401,1.3942,1.2486,1.1219,0.90181,0.6743399999999999,0.41122,0.46798999999999996,0.43423999999999996,0.4743,0.46692,0.51898,0.56931,0.45905,0.48147,0.45319,0.49228999999999995,0.4812,0.46917,0.63117,0.6418699999999999,0.75371,1.0696,1.4375,1.6661,1.6207,1.5494,1.3741,1.232,0.9606299999999999,0.54085,0.59423,0.84306,0.6988800000000001,-0.20579
5,0.36349000000000004,-1.2831,-3.0915,-4.2169,-4.1148,-3.2407,-2.2701,-1.7996,-1.5522,-0.78982,-0.49518999999999996,-0.45728,-0.46534,-0.54619,-0.5353600000000001,-0.5360199999999999,-0.53513,-0.54108,-0.5172399999999999,-0.5911,-0.57673,-0.61403,-0.58206,-0.58748,-0.71504,-0.7006899999999999,-0.7023199999999999,-0.70804,-0.7621100000000001,-0.78871,-0.8161,-0.93232,-0.9133100000000001,-0.9624299999999999,-1.0149,-0.94755,-0.9031100000000001,-0.9340200000000001,-0.8976,-0.83342,-0.79508,-0.6979,-0.55812,-0.52013,-0.38971999999999996,-0.35984,-0.23471999999999998,-0.22177,-0.15414,-0.097035,-0.21491999999999997,-0.14648,-0.12087,-0.10703,-0.11917,-0.04301,-0.030008,-0.010395999999999999,-0.12289000000000001,-0.10632,0.028547000000000003,0.034718,0.056857000000000005,0.022330000000000003,0.076132,0.11388,0.21384,0.23021999999999998,0.36826,0.4169,0.3803,0.43796999999999997,0.4826,0.47908,0.60632,0.59391,0.49775,0.66404,0.6754,0.6262800000000001,0.56826,0.5362899999999999,0.50243,0.46574,0.54606,0.49341999999999997,0.51845,0.49127,0.46147,0.3442,0.28021999999999997,0.42302,0.41858999999999996,0.42358,0.38852,0.42488000000000004,0.47428000000000003,0.61298,0.9536399999999999,1.0821,1.0629,1.1881,1.3543,1.6104,1.6153,1.5403,1.5324,1.2332,1.1205,1.0413,0.90665,0.64927,0.41241000000000005,0.22705999999999998,0.06463200000000001,0.072046,-0.013590000000000001,0.030922,0.034515,-0.032942,-0.055539,0.021187,0.016169,-0.010012,0.042763999999999996,0.052282,0.029342,0.07339,0.14275,0.3019,0.7901,1.3948,1.6115,1.9499,2.3088,2.07,1.5767,0.97059,1.041,0.76483
5,-0.091514,-1.8880000000000001,-2.9944,-4.2548,-4.1765,-3.4601,-2.4071,-1.6518,-1.5432,-0.9780200000000001,-0.5606300000000001,-0.55883,-0.5969,-0.60117,-0.48365,-0.48733999999999994,-0.46479,-0.50661,-0.48481,-0.43906999999999996,-0.5020399999999999,-0.49731000000000003,-0.42428,-0.48751000000000005,-0.57753,-0.62242,-0.69594,-0.6142,-0.65992,-0.61938,-0.6317,-0.6597,-0.68876,-0.78852,-0.84741,-0.8122699999999999,-0.7491,-0.72639,-0.5969899999999999,-0.58396,-0.51331,-0.44438,-0.38295,-0.2351,-0.34833000000000003,-0.16348,-0.12844,-0.067599,-0.0081046,-0.1102,0.04282,0.14844000000000002,0.022650999999999998,0.015193,0.039488,-0.03391,0.059104,0.1019,0.08040599999999999,0.13285,0.082564,0.1237,0.19473,0.19617,0.18863,0.22486,0.37105,0.31263,0.41008999999999995,0.47024,0.48877,0.51225,0.46818000000000004,0.6217600000000001,0.53522,0.58396,0.71443,0.56583,0.5414800000000001,0.71245,0.7137,0.66032,0.50647,0.6511100000000001,0.49432,0.5086,0.5789300000000001,0.42841,0.4835,0.49733999999999995,0.5343899999999999,0.5051100000000001,0.38924000000000003,0.37884,0.64371,0.6786300000000001,0.8291299999999999,0.94519,1.225,1.3069,1.6377,1.8167,2.0579,2.2777,2.0949,2.0304,1.7766,1.5918,1.4355,1.1354,0.79125,0.26214,0.07356499999999999,-0.059705999999999995,-0.19452,-0.17178,-0.15444000000000002,-0.2358,-0.1905,-0.17037,-0.15759,-0.068962,-0.11993,-0.18042,-0.087073,-0.13559000000000002,-0.1163,-0.04988,0.17923,0.8266600000000001,1.4283,1.1752,0.9207299999999999,0.4499,-0.07370499999999999,-0.47973999999999994,-0.25224,0.61068,0.95137,-0.69555
5,-1.0601,-2.7235,-3.0834,-3.9556,-4.1189,-3.7759,-2.3444,-1.3819,-1.1141,-0.49622,-0.10079,0.095231,-0.075474,-0.025409,-0.071363,-0.14928,-0.015137000000000001,-0.071302,-0.017581,-0.0043352,-0.13493,0.0092188,0.021283,-0.14922,-0.15761,-0.077419,-0.16838,-0.13262000000000002,-0.1432,-0.20324,-0.2509,-0.35604,-0.40765999999999997,-0.46115,-0.5202899999999999,-0.6139100000000001,-0.6475,-0.40781,-0.28955,-0.38785,-0.31292,-0.20065999999999998,-0.19499,-0.20199999999999999,-0.23259000000000002,-0.050706,-0.06018,0.14440999999999998,0.12393,0.033683,-0.07677,0.021443,0.050946,-0.087013,-0.023603,0.007298399999999999,0.009193600000000001,-0.18783,-0.019565,0.070866,-0.01888,0.06794299999999999,0.026372000000000003,0.10318,0.18930999999999998,0.27244,0.15465,0.31426,0.31128,0.15858,0.34018000000000004,0.33224000000000004,0.44803000000000004,0.44542,0.50644,0.60023,0.59458,0.6101800000000001,0.6403,0.54662,0.49035,0.56809,0.73602,0.59704,0.50458,0.4982,0.40821,0.39579000000000003,0.43408,0.33425,0.52456,0.43976000000000004,0.41441999999999996,0.48928,0.65441,0.81152,1.063,1.2332,1.4005,1.6613,2.1504,2.3686,2.2189,2.1569,1.9834,1.7566,1.7837,1.4208,1.0324,0.70536,0.44251,0.081401,-0.14052,-0.25617,-0.37322,-0.4085,-0.32927,-0.4178,-0.31031,-0.40635,-0.40374,-0.11243,-0.2151,-0.35825999999999997,-0.40001,-0.36317,-0.3886,-0.28342,0.096605,0.69577,1.3723,1.3046,0.78237,-0.069595,-0.7642800000000001,-1.4724,-1.3752,-0.9179299999999999,-0.49268999999999996,-1.2404
1,-0.009656399999999999,-1.0176,-1.4982,-2.1617,-2.4113,-2.4349,-2.4377,-2.3085,-2.2014,-2.0214,-1.6211,-1.1105,-0.70234,-0.50475,-0.41016,-0.28800000000000003,-0.10837999999999999,0.10475999999999999,0.3337,0.46652,0.42806000000000005,0.36527,0.41466000000000003,0.48453999999999997,0.46425,0.40412,0.41989,0.4522,0.41931,0.42553,0.44761999999999996,0.39008000000000004,0.35769,0.38693,0.41066,0.41836,0.38923,0.37555,0.39181,0.34744,0.29258,0.33142,0.38925,0.377,0.3347,0.31464000000000003,0.32757,0.3726,0.39284,0.32819,0.26266,0.27216,0.27204,0.23873000000000003,0.22638000000000003,0.21235,0.23065,0.24279,0.15900999999999998,0.12827,0.21975999999999998,0.23259000000000002,0.13846,0.10769000000000001,0.1716,0.21891,0.2169,0.23092,0.25871,0.2861,0.31798000000000004,0.3078,0.2949,0.35086999999999996,0.39335,0.42318,0.498,0.5347,0.51318,0.5088,0.53889,0.54794,0.51027,0.5532699999999999,0.65382,0.61645,0.55523,0.6016600000000001,0.62546,0.62676,0.67455,0.68021,0.6335,0.62355,0.64367,0.64158,0.6360600000000001,0.6490600000000001,0.65933,0.64687,0.61402,0.6078600000000001,0.6624899999999999,0.70145,0.67923,0.68842,0.69721,0.63726,0.63589,0.72005,0.75534,0.71673,0.61736,0.48433999999999994,0.42794,0.46668999999999994,0.5021100000000001,0.52833,0.52415,0.44414,0.41239,0.38885,0.24795,0.18315,0.31054,0.44506,0.4469,0.25051999999999996,-0.098218,-0.55288,-1.1165,-1.6569,-2.2683,-2.8689,-3.3596,-3.8915,-3.5909,-2.7746,-2.3547,-0.36241999999999996
1,-0.5180100000000001,-1.2094,-1.9302,-2.1967,-2.5622,-2.6275,-2.5659,-2.373,-1.8629,-1.2814,-0.7719,-0.45711999999999997,-0.39368000000000003,-0.35564,-0.085726,0.2635,0.40617,0.39739,0.45876999999999996,0.51398,0.49168999999999996,0.51208,0.48618999999999996,0.44688999999999995,0.49368999999999996,0.5121899999999999,0.5163,0.49983,0.49253,0.47108,0.43378,0.51,0.47268999999999994,0.46729,0.57805,0.44922,0.40679,0.48904,0.4111,0.39975,0.44873999999999997,0.42791,0.38898,0.33496,0.3323,0.40014,0.37046,0.30494,0.29757,0.27807,0.27149,0.22073,0.22743000000000002,0.27652,0.18935,0.15473,0.16458,0.11725999999999999,0.14724,0.13347,0.034671,0.079226,0.12099000000000001,0.062894,0.10786,0.11527000000000001,0.07965499999999999,0.16184,0.17585,0.12065,0.16172,0.18935,0.16904,0.20451,0.23276999999999998,0.2358,0.26802,0.32386,0.37823,0.38484,0.39313000000000003,0.44045,0.47068999999999994,0.46913999999999995,0.48702,0.5309699999999999,0.49537,0.4483,0.54182,0.61733,0.56748,0.53357,0.55483,0.54669,0.51572,0.56304,0.6239899999999999,0.6037,0.5664,0.5422600000000001,0.57728,0.64591,0.6286,0.59341,0.6124,0.61624,0.5986,0.59758,0.59787,0.60673,0.65686,0.6853600000000001,0.65144,0.61725,0.5727800000000001,0.5265,0.5137,0.49878999999999996,0.46108000000000005,0.4057,0.44213,0.49518,0.38772,0.28856,0.22144,0.11771,0.18975,0.35353,0.28553,0.027114,-0.29445,-0.78086,-1.4345,-2.158,-2.897,-3.6439999999999997,-4.0797,-3.8611,-3.2001,-2.1178
1,-0.84626,-1.4437,-1.9375,-2.6329,-2.8309,-2.8302,-2.5046,-1.9416,-1.3751,-1.0003,-0.92384,-0.78159,-0.30232,-0.009459,-0.0043593,-0.039256,-0.018900999999999998,0.057747,0.10082,0.096093,0.040119,0.016158000000000002,0.09785,0.051775999999999996,0.073129,0.076675,0.039625,-0.06261699999999999,-0.089688,-0.038647,-0.012258,0.07686,0.10307999999999999,0.092293,0.022746000000000002,-0.071837,-0.071255,-0.097888,-0.1697,-0.18068,-0.16699999999999998,-0.19192,-0.18497,-0.19065,-0.21327,-0.25827,-0.29854,-0.2981,-0.33842,-0.36559,-0.3241,-0.33235,-0.33873000000000003,-0.24214000000000002,-0.2608,-0.23694,-0.1409,-0.22451999999999997,-0.18204,-0.15549000000000002,-0.161,0.060772,0.10995,0.15496,0.23263000000000003,0.24079,0.29825999999999997,0.35433000000000003,0.39193,0.20318,0.35908,0.42723999999999995,0.42078000000000004,0.4488,0.45857,0.52688,0.53646,0.55004,0.5504399999999999,0.51467,0.52568,0.53997,0.53742,0.5743199999999999,0.5262600000000001,0.53869,0.57407,0.5765100000000001,0.7180300000000001,0.72211,0.65775,0.64915,0.71244,0.73217,0.77465,0.81395,0.8833799999999999,0.89646,0.94821,0.76984,0.7572399999999999,0.87474,0.9877799999999999,0.9849399999999999,0.90056,0.9632200000000001,0.9279,1.0121,1.0909,1.0981,1.1512,1.0544,1.0193,1.045,1.1127,1.0721,0.94981,0.9725600000000001,0.9714299999999999,1.0003,0.86719,0.71939,0.56903,0.61698,0.6594,0.6068399999999999,0.41908,0.22239,0.073763,-0.09830599999999999,-0.082402,-0.1086,-0.37767,-0.72025,-1.4521,-1.8704,-2.6958,-3.1032,-4.1368,-4.1873
1,-0.9232,-1.7162,-2.2337,-2.6444,-2.6211,-2.3869,-1.8511,-1.224,-0.90784,-0.80808,-0.70019,-0.34909,0.20492,0.34476,0.32126,0.30413,0.2373,0.24745,0.26963000000000004,0.32021,0.34549,0.31376,0.33634000000000003,0.35663,0.23964000000000002,0.19512000000000002,0.23874,0.23423000000000002,0.21400999999999998,0.29715,0.26843,0.13408,0.13087000000000001,0.12032000000000001,0.17883,0.084,0.10413,0.12849000000000002,0.09001100000000001,0.055107,-0.00027603,-0.0095339,-0.069262,-0.044650999999999996,-0.11919,-0.19503,-0.090459,-0.14047,-0.15589,-0.13874,-0.19733,-0.19833,-0.26299,-0.22994,-0.21402,-0.14672000000000002,-0.1293,-0.21441999999999997,-0.19252,-0.21773,-0.13835,-0.099234,0.0088874,0.0027167,0.050273000000000005,0.047498,0.09563200000000001,0.15423,0.22246,0.21269000000000002,0.28193,0.3479,0.38641,0.45406,0.44435,0.49375,0.45076000000000005,0.53968,0.55155,0.47616,0.46433,0.61295,0.59458,0.55803,0.5787800000000001,0.6190100000000001,0.6853600000000001,0.649,0.65551,0.69304,0.64605,0.67383,0.71805,0.7329899999999999,0.64448,0.72935,0.82152,0.75967,0.75737,0.79951,0.86595,0.9215399999999999,0.9062899999999999,0.8821899999999999,0.9039299999999999,0.90894,0.9814799999999999,0.9797299999999999,0.9681299999999999,0.9615299999999999,0.97078,1.0287,0.965,1.0474,1.0187,0.93999,0.97478,0.85667,0.8062600000000001,0.66283,0.51474,0.65355,0.6522899999999999,0.42631,0.19822,0.071052,-0.11092,-0.2861,-0.14989,-0.16241,-0.46138,-0.78966,-1.4263,-2.1054,-2.7995,-3.5852,-4.2616,-3.7621,-2.88,-1.6459
1,1.1733,0.012086,-1.4791,-2.997,-3.6767,-3.6660000000000004,-3.2408,-2.7662,-2.0008,-1.4521,-1.3528,-1.1929,-0.7175199999999999,-0.22401,-0.13255999999999998,-0.14386,-0.18078,-0.14636,-0.089418,-0.066728,-0.070388,-0.1127,-0.12498,-0.10901,-0.16214,-0.092513,-0.10875,-0.1209,-0.12015,-0.11427999999999999,-0.13169,-0.20926999999999998,-0.20248,-0.24001,-0.23321,-0.22871999999999998,-0.21115,-0.29302,-0.34881999999999996,-0.36933,-0.31715,-0.32214,-0.40973000000000004,-0.41293,-0.41001000000000004,-0.41545,-0.44168999999999997,-0.45033,-0.42594,-0.37846,-0.30298,-0.40048,-0.32374,-0.18016,-0.20481,-0.19976,-0.06525399999999999,-0.005862600000000001,0.0059929,0.12364000000000001,0.19397,0.21463000000000002,0.31021,0.30554000000000003,0.31477,0.37437,0.35791,0.32697,0.41657,0.44243999999999994,0.42976000000000003,0.43878,0.42961000000000005,0.44856999999999997,0.53182,0.5071,0.57645,0.5446,0.57897,0.4927,0.52489,0.63171,0.63394,0.59355,0.6924,0.6943699999999999,0.6752600000000001,0.7036100000000001,0.74774,0.80569,0.87672,0.79064,0.8458700000000001,0.99519,0.9329700000000001,0.9697100000000001,1.0446,1.0195,1.0201,1.0868,1.0489,1.0558,1.0314,0.9943799999999999,1.0188,0.8976200000000001,1.0005,0.91465,0.86482,0.8579600000000001,0.9013100000000001,0.88635,0.8432799999999999,0.82183,0.89107,0.8174399999999999,0.8212700000000001,0.80769,0.6752600000000001,0.62883,0.45597,0.28086,0.40465,0.32084,0.23101999999999998,0.11442999999999999,0.13644,0.21838000000000002,0.43378999999999995,0.8194600000000001,0.88182,0.5774600000000001,-0.047182999999999996,-0.71709,-1.2109999999999999,-2.1502,-3.029,-3.1843,-2.2763,-1.0793
5,-1.9581,-4.0496,-4.1355,-4.227,-3.5764,-2.6557,-1.5801,-1.5054,-0.9389700000000001,-0.44573,-0.42826000000000003,-0.41483000000000003,-0.41163,-0.35765,-0.39169,-0.39028,-0.32903000000000004,-0.39552,-0.34288,-0.27968000000000004,-0.41788000000000003,-0.43125,-0.47962,-0.4391,-0.48936999999999997,-0.4507,-0.48983000000000004,-0.56645,-0.54374,-0.6301399999999999,-0.64183,-0.63403,-0.73316,-0.67408,-0.63383,-0.61685,-0.6533399999999999,-0.6945600000000001,-0.57707,-0.5249699999999999,-0.53661,-0.45353000000000004,-0.32403000000000004,-0.26109,-0.1707,-0.16754000000000002,-0.14768,-0.09147899999999999,0.0021501999999999997,-0.030833999999999997,0.0042028,-0.0065866,-0.056559000000000005,0.064171,0.0039296,-0.016253,-0.028547000000000003,-0.082362,0.025016,0.020778,0.020358,0.075807,0.05097,0.095202,0.058909,0.11597,0.17192000000000002,0.19309,0.28849,0.3059,0.38526,0.36355,0.37381,0.49948000000000004,0.5594600000000001,0.54619,0.51048,0.53338,0.5069899999999999,0.57055,0.5112800000000001,0.53983,0.5251100000000001,0.53808,0.41307,0.43592,0.4474,0.43973,0.46124,0.45133999999999996,0.41068000000000005,0.41621,0.46633,0.52151,0.5213399999999999,0.6978800000000001,0.81138,0.92466,1.2036,1.213,1.4571,1.7203,1.8905,1.9527,1.8632,1.7645,1.578,1.4297,1.2229999999999999,0.84288,0.56107,0.24725,0.021737,-0.01878,-0.16069,-0.12078,-0.20967,-0.1942,-0.096854,-0.14651,-0.23243000000000003,-0.19421,-0.27102,-0.15124,-0.099584,-0.12275,-0.14536,-0.035329,0.14870999999999998,0.5783699999999999,1.0390000000000001,0.9844,1.2256,1.3879,1.3044,0.9771799999999999,0.72687,0.96224,1.1833,-0.65659
5,-1.6323,-3.1992,-3.4032,-4.0329,-4.3181,-4.0342,-3.0155,-1.7924,-1.3511,-0.75388,-0.22315,-0.16221,-0.15535,-0.13704000000000002,-0.072395,-0.074152,-0.13747,-0.14959,-0.11223,-0.10659,-0.10489000000000001,-0.18789,-0.19321,-0.18266,-0.30782,-0.25012,-0.31421,-0.24466,-0.24661999999999998,-0.30579,-0.35681,-0.42286999999999997,-0.34313,-0.32706999999999997,-0.41583000000000003,-0.32627,-0.36946999999999997,-0.35291999999999996,-0.29347,-0.2783,-0.2263,-0.21100000000000002,-0.16202,-0.07298099999999999,-0.046077999999999994,0.063323,-0.062426999999999996,0.00064319,-0.020578,0.042591000000000004,0.018653,0.086097,-0.1089,-0.080925,0.0065208,-0.0066876999999999995,-0.05279,-0.13484000000000002,0.022024000000000002,-0.06175599999999999,-0.023462,0.10226,0.010768000000000002,-0.013144,0.051624,0.1279,0.22455,0.25343000000000004,0.30608,0.34881999999999996,0.4265,0.49451000000000006,0.53973,0.5536300000000001,0.5353,0.49516000000000004,0.64379,0.54465,0.52136,0.54711,0.5717399999999999,0.51569,0.4881,0.44856999999999997,0.41306000000000004,0.39468000000000003,0.41389,0.40821999999999997,0.33788,0.3573,0.33921,0.31751999999999997,0.32965,0.32056,0.4355,0.39042,0.34037,0.36291,0.31613,0.49681000000000003,0.45463000000000003,0.54545,0.67805,0.7028399999999999,1.0267,1.2889,1.3247,1.1088,0.7315,0.58026,0.56899,0.6096600000000001,0.65536,0.57957,0.28356,0.16101,-0.08658300000000001,-0.12788,-0.021667,-0.04374,-0.023063999999999998,-0.038311000000000005,-0.080549,0.0054268,0.017921,0.037394,0.074946,0.10067000000000001,0.14786,0.43082,1.0338,2.0074,2.3679,2.3876,2.4594,1.8661,0.53282,-0.91435,-1.035,-1.3933
5,0.41501000000000005,-1.4381,-3.154,-4.4654,-4.5198,-3.6444,-2.4463,-1.8416,-1.6763,-0.77391,-0.24688000000000002,-0.36589,-0.26988,-0.31339,-0.3067,-0.21031,-0.30741999999999997,-0.29470999999999997,-0.29261,-0.38974000000000003,-0.37744,-0.43072,-0.42232,-0.34237,-0.428,-0.50146,-0.57849,-0.55313,-0.52022,-0.53078,-0.6999,-0.73131,-0.69188,-0.79295,-0.74447,-0.8402,-0.75359,-0.7572300000000001,-0.70604,-0.67573,-0.65385,-0.49599,-0.39011999999999997,-0.33103,-0.22683000000000003,-0.14023,-0.020947,0.044052,0.17787,-0.023413,0.071388,0.16948,0.18884,0.081444,-0.0025809,0.21066,0.29098,0.15202000000000002,-0.0064462,0.18395999999999998,0.25893,0.20993,0.25983,0.3007,0.40915,0.36576,0.2737,0.33866999999999997,0.4773,0.5872,0.62866,0.62524,0.75113,0.76486,0.7914899999999999,0.7275699999999999,0.76805,0.79298,0.74636,0.78173,0.75235,0.7932600000000001,0.8013600000000001,0.77499,0.64772,0.60101,0.5535100000000001,0.44525,0.49154,0.56443,0.5795100000000001,0.48691999999999996,0.39837,0.41831999999999997,0.46685,0.39715,0.40965,0.61734,0.8622799999999999,0.99229,1.0738,1.178,1.3435,1.6917,1.8015,1.6622,1.6534,1.4604,1.2715,1.0239,0.81533,0.56812,0.19068,-0.06806799999999999,-0.26143,-0.33597,-0.45142,-0.3316,-0.38156999999999996,-0.44872,-0.44743,-0.47855,-0.4232,-0.4808,-0.46508,-0.45206,-0.4364,-0.42641999999999997,-0.21075,0.44948999999999995,0.9917,1.0916,1.4208,1.6573,1.5237,0.64661,0.046561,0.013183000000000002,0.19367,-1.2412
3,0.23288000000000003,-0.7326199999999999,-1.8704,-2.8563,-3.43,-3.7085,-3.4872,-2.8294,-2.1272,-1.5718,-1.185,-1.1606,-0.8645700000000001,-0.28081,-0.12692,-0.17902,-0.05789299999999999,-0.048681,-0.06348200000000001,-0.069499,-0.14351,-0.17253,-0.17675,-0.1612,-0.15042,-0.11525999999999999,-0.14935,-0.16338,-0.16267,-0.22344,-0.2381,-0.13544,-0.16643,-0.21113,-0.24979,-0.1853,-0.29211,-0.29769,-0.29208,-0.3145,-0.32066999999999996,-0.28951,-0.3659,-0.38795,-0.39061999999999997,-0.44903000000000004,-0.50984,-0.49753000000000003,-0.48465,-0.44656,-0.55383,-0.59814,-0.58837,-0.57736,-0.53365,-0.60963,-0.57636,-0.56987,-0.65367,-0.64798,-0.55686,-0.53861,-0.56084,-0.52457,-0.52062,-0.50105,-0.4268,-0.47048,-0.37655,-0.33926,-0.31736,-0.2528,-0.2483,-0.22203,-0.019038,-0.09397799999999999,-0.13976,-0.031415,-0.069173,-0.032728,0.047076,0.053034000000000005,0.0066238,0.062659,0.060016,0.036507,0.077904,0.086967,0.11155,0.086646,0.093269,0.14007999999999998,0.15516,0.25398000000000004,0.25377,0.18227000000000002,0.18761,0.20914000000000002,0.34255,0.30564,0.31539,0.4407,0.42594,0.38784,0.47941000000000006,0.56303,0.49763999999999997,0.5774100000000001,0.66923,0.71328,0.71934,0.7609100000000001,0.87125,0.80379,0.77298,0.83641,0.9529299999999999,0.8919100000000001,0.83134,0.87902,0.91961,0.9548,1.0425,1.1727,1.3705,1.8505,2.1447,2.0416,1.8593,1.59,1.3425,1.3624,1.9315,2.5777,2.2677,1.6134,1.23,1.3004,1.2499,0.74768
3,0.19655,-0.90856,-1.7727,-2.4068,-2.8713,-3.1977,-3.0676,-2.5383,-1.8724,-1.3286,-0.98254,-0.7991199999999999,-0.59711,-0.29162,0.13084,0.25511,0.17289000000000002,0.10772000000000001,0.1174,0.18843,0.20287,0.23778000000000002,0.17837,0.20593000000000003,0.24594000000000002,0.22649,0.27384000000000003,0.26228,0.2273,0.17199,0.14293,0.22616999999999998,0.1939,0.13519,0.15409,0.13232,0.0764,0.1036,0.14224,0.052621,0.080279,0.07274,0.018626,0.13485,0.059721,0.038663,-0.037246,-0.01838,-0.053776,-0.078735,-0.061778,-0.079658,-0.035019,-0.11487,-0.031972,-0.059178999999999995,-0.10346,-0.052252999999999994,-0.049318,0.012909,0.023827,0.023646,0.088837,0.11868,0.1351,0.17174,0.32365,0.36999,0.36332,0.43575,0.48632,0.48203,0.4955,0.50875,0.56261,0.65215,0.5944,0.58012,0.6058899999999999,0.54209,0.60335,0.6186699999999999,0.58896,0.6138899999999999,0.6162,0.6781,0.6709999999999999,0.6151,0.58267,0.65463,0.66052,0.59297,0.6209899999999999,0.7362,0.70604,0.68787,0.80047,0.75476,0.76968,0.7668,0.74958,0.8494200000000001,0.89345,0.9053200000000001,0.8898,0.92033,0.9817100000000001,0.89299,0.95481,1.1208,1.0929,1.1004,1.0923,1.1007,1.0742,0.9255,0.7497199999999999,0.6533399999999999,0.7588199999999999,0.7211,0.6025699999999999,0.48563,0.23784,0.15369000000000002,0.14790999999999999,0.13635,0.026876999999999998,-0.32903000000000004,-0.80005,-1.3435,-1.7373,-2.18,-2.8,-3.3901,-3.5051,-2.8916,-1.9947,-0.95939,-0.7419399999999999,-0.21768
1,-0.6098600000000001,-0.95511,-1.0502,-1.5294,-1.5849,-1.9809,-2.1759,-2.0999,-1.8472,-1.4829,-0.9991700000000001,-0.57534,-0.36499000000000004,-0.31239,-0.23385999999999998,-0.0078614,0.19336,0.31018,0.31448000000000004,0.29958,0.29125999999999996,0.2814,0.3613,0.32794,0.32313000000000003,0.36844,0.36435,0.32604,0.26748,0.33853,0.37195,0.35885,0.33875,0.32561999999999997,0.31829,0.2814,0.34008,0.35922,0.29001,0.26685,0.29219,0.29264,0.26748,0.28922,0.32237,0.31411,0.27716,0.24766999999999997,0.24078000000000002,0.25355,0.26798,0.26711,0.27435,0.24911999999999998,0.20174,0.22002,0.25355,0.22191,0.1764,0.1758,0.19617,0.22555,0.27614,0.2814,0.26447,0.2961,0.28084000000000003,0.3086,0.33551,0.31232,0.39281,0.41551000000000005,0.38256999999999997,0.44036000000000003,0.46158999999999994,0.42726000000000003,0.43903000000000003,0.43459,0.43983999999999995,0.5080399999999999,0.50536,0.45386000000000004,0.43396999999999997,0.47521,0.5320699999999999,0.46629,0.40362,0.42508999999999997,0.40881,0.41873999999999995,0.43231,0.40674,0.43315,0.41816000000000003,0.39453,0.36421,0.4118,0.49573999999999996,0.46243999999999996,0.47408999999999996,0.45395,0.4229,0.44938999999999996,0.44738,0.47052,0.50422,0.47121,0.45255,0.48973999999999995,0.4772,0.47239,0.54366,0.5320699999999999,0.52977,0.63339,0.56048,0.5258,0.49793999999999994,0.29402,0.26748,0.37499,0.49623999999999996,0.58381,0.57711,0.5076,0.44428,0.46243999999999996,0.547,0.60432,0.48556000000000005,0.20461,-0.35913,-1.0153,-1.71,-2.4438,-3.1624,-4.4438,-4.4828,-4.9407,-3.0748
5,0.19563,-2.6998,-4.1989,-4.2827,-3.8747,-2.8353,-1.9525,-1.6647,-1.006,-0.24771999999999997,-0.2276,-0.21081,-0.2299,-0.23348000000000002,-0.20115999999999998,-0.25711,-0.25211999999999996,-0.3384,-0.30406,-0.26008000000000003,-0.30512,-0.30372,-0.38945,-0.47736000000000006,-0.56319,-0.51358,-0.63436,-0.61215,-0.63335,-0.71753,-0.73135,-0.81097,-0.86295,-0.82842,-0.86672,-0.8719600000000001,-0.7602399999999999,-0.81179,-0.74865,-0.72348,-0.7208399999999999,-0.67878,-0.52327,-0.35385,-0.35439,-0.23838,-0.22123,-0.14157,-0.16172,-0.11805,-0.066522,-0.025041,-0.034069999999999996,-0.094243,-0.027989999999999998,0.011184,-0.0017405,0.0094412,0.047682,0.027232999999999997,0.060966,0.1061,0.24404,0.21561,0.17131,0.11745,0.093216,0.27744,0.38148000000000004,0.52061,0.55887,0.47755,0.49401000000000006,0.4779,0.45883999999999997,0.49263,0.48102,0.60534,0.6167100000000001,0.62995,0.38323,0.35736,0.48117,0.32857,0.41925,0.50066,0.54704,0.46228,0.41553999999999996,0.36277,0.35720999999999997,0.2951,0.23258,0.26069000000000003,0.35374,0.44125,0.34555,0.33111,0.62668,0.81766,0.91038,0.9804700000000001,1.2744,1.4647,1.7682,1.8765,1.8096,1.8473,1.6099,1.3788,1.0176,0.8004399999999999,0.49046999999999996,0.14622000000000002,-0.093545,-0.14071,-0.074186,-0.039173,-0.030844999999999997,-0.060804,-0.15463,-0.11231,-0.076774,-0.081401,-0.053323,-0.13076,0.07005499999999999,0.007065699999999999,0.11652,0.59575,1.5689,1.8672,1.8843,2.1123,1.4921,0.48608999999999997,0.08375,0.57923,0.66477,-1.7409
1,0.41501000000000005,-1.0092,-2.2759,-3.1226,-3.2718,-2.8075,-2.3932,-1.8801,-1.2336,-0.92816,-0.78859,-0.37172,0.10547000000000001,0.18307,0.19794,0.15971,0.20954,0.20567,0.1892,0.24931,0.2156,0.18633,0.11431,0.15037999999999999,0.24715,0.15635,0.15213,0.097064,0.12536,0.074991,0.06640399999999999,0.0044656999999999995,0.0053119,0.029537,-0.055917999999999995,-0.0082105,-0.1038,-0.092351,-0.11417999999999999,-0.17929,-0.11267,-0.15918,-0.1547,-0.14226,-0.2046,-0.23456999999999997,-0.2079,-0.19258,-0.1612,-0.11968,-0.09697,-0.16277,-0.06717100000000001,0.031233999999999998,0.06578099999999999,0.058435,0.12462999999999999,0.13519,0.19962,0.30295,0.34284000000000003,0.31131,0.35525999999999996,0.40591,0.34518000000000004,0.38394,0.44922,0.38299,0.45803,0.48535,0.41361000000000003,0.42489,0.38503000000000004,0.40308,0.44187,0.37626,0.44068999999999997,0.43396999999999997,0.49175,0.46633,0.48128999999999994,0.48741999999999996,0.45488999999999996,0.44242,0.54381,0.62244,0.59282,0.62378,0.69405,0.62285,0.6653399999999999,0.7158,0.69243,0.70121,0.7905800000000001,0.75956,0.81458,0.8411799999999999,0.78598,0.74066,0.75335,0.74941,0.68614,0.77818,0.75058,0.69668,0.71291,0.6926100000000001,0.67613,0.6381,0.61078,0.62837,0.64804,0.60956,0.58778,0.5697,0.5422899999999999,0.50097,0.46374,0.43306999999999995,0.23754,0.1448,0.1337,0.22038000000000002,0.3821,0.3255,0.25559,0.30227,0.48518,0.7619,0.8921899999999999,0.68505,-0.22094,-1.1645,-1.9415,-3.0613,-4.1431,-4.2835,-3.4655,-2.3504
5,-0.39453,-3.5866,-4.2592,-4.4047,-3.9142,-2.7608,-1.5827,-1.2862,-0.37835,0.099561,-0.0064594,0.01296,-0.089805,-0.12687,-0.090169,-0.034252,-0.025963999999999997,0.031044,-0.041306999999999996,-0.16339,-0.26089,-0.31682,-0.29388000000000003,-0.35928000000000004,-0.32936,-0.57618,-0.50056,-0.31001999999999996,-0.31740999999999997,-0.44356,-0.6612600000000001,-0.6028100000000001,-0.81148,-0.8762200000000001,-0.9044399999999999,-0.7055600000000001,-0.6302300000000001,-0.74278,-0.80453,-0.75425,-0.71296,-0.61523,-0.65487,-0.36372,-0.23684000000000002,-0.14204,-0.09434400000000001,-0.11104000000000001,-0.24436999999999998,0.018588999999999998,0.14493,0.25203000000000003,0.11467000000000001,0.19034,0.109,-0.085655,-0.064734,0.082508,0.12336,0.15279,0.2267,0.055742999999999994,0.13978,0.09678400000000001,0.13401,0.22335,0.2888,0.2978,0.29486,0.4519,0.42067,0.46781000000000006,0.5551699999999999,0.6220600000000001,0.46035,0.42436999999999997,0.43398000000000003,0.3329,0.48162,0.48733000000000004,0.48213999999999996,0.42633999999999994,0.31611,0.23055,0.38011999999999996,0.35994,0.39985,0.33055,0.2396,0.19272,0.11855999999999998,0.19752,0.19313,0.19535999999999998,0.17412,0.18711,0.034827,0.16087,0.43654,0.40495,0.56714,0.71819,1.0837,1.3405,1.6440000000000001,1.9449,2.1390000000000002,2.0281,1.7719,1.6485,1.395,0.9104200000000001,0.67773,0.36518,-0.13375,-0.3432,-0.22821999999999998,-0.46147,-0.3822,-0.23338000000000003,-0.39439,-0.38354,-0.23123000000000002,-0.2431,-0.18882000000000002,-0.15875999999999998,-0.21422,-0.15286,-0.085858,-0.0037054,0.84355,1.9008,2.0185,1.9814,2.0078,1.0631,0.16868,-0.38534,0.47653,-0.48646999999999996
5,-0.9696600000000001,-2.6475,-3.2457,-3.9753,-4.3732,-4.1819999999999995,-3.1214,-1.953,-1.6335,-1.0565,-0.45288999999999996,-0.26682,-0.349,-0.49008,-0.39431,-0.43506999999999996,-0.33887,-0.42291999999999996,-0.3442,-0.29784,-0.36451,-0.25665,-0.29879,-0.29695,-0.2538,-0.37966,-0.32413000000000003,-0.31795,-0.38935,-0.40949,-0.30458,-0.29724,-0.2816,-0.2153,-0.28252,-0.25059000000000003,-0.27335,-0.1687,-0.1899,-0.18629,-0.10624000000000001,-0.027045999999999997,-0.034977,0.057314,0.09903300000000001,0.077652,0.08275199999999999,0.14237,0.12596,0.098838,0.11900999999999999,0.17081,0.18142,0.059171,0.03126,0.089146,0.072047,0.16687000000000002,0.16841,0.12336,0.064539,-0.06667999999999999,0.071564,0.073166,0.055174,0.017144,0.1223,0.19426,0.21534,0.19616,0.2666,0.26752,0.34792,0.40010999999999997,0.40691,0.3683,0.45666999999999996,0.56366,0.57777,0.59015,0.53335,0.58735,0.5822,0.48053999999999997,0.55653,0.5796100000000001,0.46833,0.46035,0.42998000000000003,0.45378999999999997,0.4628,0.37768,0.40398,0.53606,0.6479699999999999,0.78209,0.9335600000000001,0.9601799999999999,1.2527,1.44,1.5508,1.725,2.0159,1.8627,1.777,1.7052,1.4657,1.2773,1.1228,0.86388,0.69827,0.39257,-0.009549799999999999,-0.14483,-0.14268,-0.14597000000000002,-0.19280999999999998,-0.14664000000000002,-0.15092,-0.10562,-0.18631,-0.20965,-0.26605,-0.22591,-0.077916,-0.14515999999999998,-0.15953,-0.13305999999999998,0.17388,0.8053899999999999,1.3529,1.3564,1.3008,0.81657,0.29868,-0.44597,-1.0324,-0.9418,-0.15494000000000002,-0.66775
5,0.89008,-1.0931,-3.1209,-4.7461,-4.6559,-3.5446,-1.9903,-1.6174,-1.1631,-0.1396,-0.12224000000000002,-0.10123,-0.13546,-0.052697,-0.08332300000000001,-0.06995599999999999,-0.10469,-0.077716,-0.12634,-0.14027,-0.057766,-0.15799000000000002,-0.13459000000000002,-0.27629000000000004,-0.31724,-0.39731,-0.37537,-0.36457,-0.42733999999999994,-0.49701999999999996,-0.59824,-0.62337,-0.71246,-0.81738,-0.7880699999999999,-0.9087200000000001,-1.0299,-0.99525,-1.0653,-1.0441,-1.0233,-0.9153,-0.7860199999999999,-0.78561,-0.51582,-0.39836,-0.29494000000000004,-0.21383000000000002,-0.15809,-0.027163999999999997,0.019366,0.073739,0.08568200000000001,0.18198,0.1764,0.17088,0.17815999999999999,0.21423000000000003,0.24691,0.29585,0.22994,0.23331,0.24247,0.24569000000000002,0.38421,0.33254,0.28708,0.42946000000000006,0.31209000000000003,0.52154,0.48184,0.56872,0.69207,0.6400100000000001,0.69408,0.65084,0.73361,0.79555,0.64808,0.63076,0.62784,0.58633,0.5346,0.5757800000000001,0.57729,0.5834,0.44482,0.46201000000000003,0.45392,0.29959,0.30367,0.26056999999999997,0.27631,0.32144,0.30949,0.36307,0.47356000000000004,0.6421899999999999,0.88505,0.9701,1.1798,1.3478,1.6417,1.9083,2.01,2.021,1.9613,1.6368,1.4559,1.3913,0.96454,0.5677,-0.030552999999999997,-0.27096,-0.36851,-0.44011999999999996,-0.45916,-0.36741,-0.40452,-0.5161,-0.42878999999999995,-0.47172,-0.38932,-0.53267,-0.41023000000000004,-0.43922,-0.42685,-0.21095999999999998,-0.061814999999999995,0.7138800000000001,1.3219999999999998,0.81921,0.6048899999999999,0.6510600000000001,0.37273,0.13412000000000002,0.11494000000000001,0.57734,1.2281,-0.84221
3,-0.44283999999999996,-0.83304,-1.11,-1.4719,-1.6975,-2.2447,-2.4788,-2.3853,-2.0984,-1.7790000000000001,-1.3619999999999999,-0.81524,-0.57933,-0.64748,-0.59638,-0.35554,-0.011753,0.18869,0.26026,0.3842,0.39646,0.30967,0.2476,0.21404,0.25798000000000004,0.27589,0.26504,0.29581,0.27601,0.35556,0.45766999999999997,0.3915,0.34371,0.32726,0.30871,0.36099000000000003,0.32363000000000003,0.30680999999999997,0.38755,0.34508,0.2286,0.20334000000000002,0.26916,0.25481,0.18968,0.23785,0.31961999999999996,0.34614,0.31525,0.22891999999999998,0.22887,0.27038,0.21034,0.17945999999999998,0.21029,0.21311999999999998,0.19593,0.12082999999999999,0.1693,0.29281,0.32931,0.40733,0.37634,0.3129,0.27896,0.30246999999999996,0.42582,0.47825,0.5344800000000001,0.56767,0.54628,0.45164,0.39497,0.39511,0.38978,0.44558000000000003,0.34178000000000003,0.42943000000000003,0.71296,0.71428,0.5643100000000001,0.41156000000000004,0.39686,0.43458,0.46951000000000004,0.53058,0.56758,0.5512699999999999,0.50661,0.5708,0.55092,0.51093,0.50344,0.42773999999999995,0.45747,0.47098999999999996,0.47131999999999996,0.5241,0.53198,0.5753,0.5811,0.5273899999999999,0.5967600000000001,0.58076,0.47558999999999996,0.52832,0.6430899999999999,0.68338,0.61661,0.57825,0.65005,0.71777,0.71121,0.71735,0.74816,0.74608,0.78696,0.81612,0.66399,0.54003,0.5475300000000001,0.54285,0.60697,0.55203,0.32056,0.15705,-0.014632,-0.24636999999999998,-0.32161999999999996,-0.26282,-0.37151999999999996,-0.71886,-1.0864,-1.6969,-2.3267,-2.8926,-3.9544,-4.0488,-4.5717,-3.0414
1,-0.8800600000000001,-1.7689,-2.1281,-2.7081,-2.6684,-2.5637,-2.2962,-1.8741,-1.3646,-0.85116,-0.54073,-0.45493,-0.37245,-0.051358,0.3096,0.4049,0.44647,0.45708000000000004,0.38218,0.46418999999999994,0.45473,0.39059,0.43351000000000006,0.39982,0.41333000000000003,0.4778,0.48273999999999995,0.48608,0.44887,0.4024,0.40652,0.3709,0.37619,0.36994,0.31647,0.32245999999999997,0.32337,0.32996,0.28878000000000004,0.23721,0.32304,0.36433000000000004,0.2927,0.28670999999999996,0.25244,0.19328,0.22976,0.24372,0.22793000000000002,0.19680999999999998,0.12619,0.10935,0.1684,0.16785999999999998,0.13499,0.1662,0.08784700000000001,0.023737,0.085132,0.067109,0.0795,0.14363,0.17492,0.1811,0.1619,0.16239,0.16989,0.21816,0.25281,0.29858,0.36254000000000003,0.34503,0.3755,0.43722,0.47595,0.45553,0.47848,0.62995,0.59968,0.5673,0.6118899999999999,0.60565,0.64274,0.61164,0.62426,0.6357,0.5647800000000001,0.5663699999999999,0.58297,0.59678,0.59878,0.5231399999999999,0.51677,0.5858899999999999,0.56865,0.5663,0.61542,0.62665,0.64972,0.6209899999999999,0.60815,0.71644,0.67737,0.6630699999999999,0.7252,0.66317,0.69224,0.72148,0.73457,0.7017899999999999,0.69447,0.76384,0.6812199999999999,0.68403,0.6634,0.4567,0.45997,0.5627800000000001,0.5158,0.51748,0.49278,0.33299,0.21138,0.044479000000000005,-0.077477,0.054947,0.07596599999999999,-0.11549000000000001,-0.38458000000000003,-0.9146799999999999,-1.4984,-2.0585,-2.7996,-3.5980000000000003,-3.9474,-3.7708,-3.1104,-1.9448,-1.4903,-0.31128
5,-2.9749,-4.1223,-4.1879,-4.1344,-3.2674,-2.1065,-1.6994,-1.315,-0.72373,-0.64578,-0.5663600000000001,-0.47712,-0.6016100000000001,-0.5927399999999999,-0.51844,-0.41056000000000004,-0.49075,-0.56099,-0.5110899999999999,-0.53192,-0.6503899999999999,-0.58935,-0.62108,-0.49205,-0.63749,-0.50202,-0.55502,-0.5548,-0.4909,-0.60416,-0.48112,-0.47661000000000003,-0.5938899999999999,-0.47897,-0.48023000000000005,-0.5416300000000001,-0.45061999999999997,-0.30927,-0.28792,-0.19505999999999998,-0.13782,0.03241,0.028954,-0.066026,0.075338,0.021994,-0.028145,0.09073300000000001,-0.0043531,-0.12458,-0.23348000000000002,-0.1013,-0.084648,-0.044136,-0.10334000000000002,-0.1059,-0.12088,-0.1584,-0.10337,-0.095345,-0.027214999999999996,0.011462,0.066827,0.088102,0.16673,0.20043,0.28451,0.32472,0.41123000000000004,0.41212,0.37162,0.46965,0.5661,0.55061,0.52327,0.62198,0.60558,0.59234,0.5875100000000001,0.49055,0.4667,0.36077,0.43700000000000006,0.55835,0.47778000000000004,0.5000600000000001,0.40804,0.44254,0.555,0.4425,0.45031000000000004,0.4296,0.44067,0.5178,0.5296,0.54401,0.6539,0.8069,0.9316200000000001,1.0884,1.2398,1.5498,1.7617,1.9945,1.9856,1.9058,1.9489,1.7656,1.6009,1.3805,1.1173,0.85135,0.72763,0.3859,0.039445999999999995,-0.139,-0.11425,-0.16965999999999998,-0.18387,-0.094347,-0.13384000000000001,-0.16292,-0.1527,-0.15047,-0.12918,-0.24366,-0.11116,-0.12277,-0.025960000000000004,0.27295,0.9582799999999999,1.4263,1.2948,0.99936,0.526,0.26191,0.029338,-0.44631000000000004,-0.312,0.002215
5,0.49946999999999997,-0.93261,-1.8921,-2.6394,-2.793,-2.3651,-1.1772,-0.062558,0.21415,0.76122,1.2228,1.1967,1.2749,1.1896,1.1867,1.1311,1.1197,1.1517,1.1435,1.0901,1.0854,1.0048,1.0193,0.8932399999999999,0.8317200000000001,0.8738299999999999,0.7289399999999999,0.77123,0.6462100000000001,0.5393399999999999,0.54795,0.42272,0.35086999999999996,0.43387,0.37682,0.38256999999999997,0.28733000000000003,0.30878,0.35669,0.4104,0.41755,0.3507,0.43216000000000004,0.30483000000000005,0.43653000000000003,0.5061899999999999,0.5086,0.50113,0.56092,0.60968,0.60535,0.59983,0.54179,0.48808999999999997,0.47347,0.29721,0.30203,0.33921999999999997,0.32971999999999996,0.34221,0.34328000000000003,0.26413000000000003,0.22326999999999997,0.18377000000000002,0.21691,0.1136,0.18969,0.26528,0.21095,0.22991999999999999,0.15542999999999998,0.19588,0.23442,0.24839,0.48541000000000006,0.42346999999999996,0.46003,0.43726000000000004,0.35534,0.32,0.24316,0.30896,0.19467,0.21595999999999999,0.13973,0.1482,0.19897,0.14770999999999998,-0.0080802,-0.099731,-0.10404000000000001,-0.051129,-0.012237999999999999,0.054265,0.2463,0.42036999999999997,0.5141600000000001,0.64374,0.7532,1.0666,1.3868,1.4564,1.3519,1.2342,1.1685,0.81803,0.4804,0.21070999999999998,0.020068,-0.25721,-0.76079,-0.93263,-1.1698,-1.225,-1.2217,-1.3199,-1.3042,-1.3139,-1.3365,-1.3347,-1.4257,-1.3597,-1.5662,-1.6495,-1.5295,-1.4164,-1.3469,-1.1641,-0.6238600000000001,0.094306,-0.11988,-0.614,-0.99744,-1.4098,-1.7275,-2.1272,-1.9941,-1.9369999999999998,-2.2016,-3.9508
1,0.21535,-1.0521,-2.1311,-2.6279,-2.7333,-2.8187,-2.8135,-2.6476,-2.0512,-1.444,-1.0743,-0.9079799999999999,-0.8686299999999999,-0.75179,-0.24548000000000003,0.096625,0.17204,0.19989,0.15084,0.2238,0.22708000000000003,0.23826,0.2554,0.16475,0.12465999999999999,0.16041,0.23487,0.16377,0.15083,0.2408,0.19152,0.1947,0.19532,0.16534000000000001,0.073254,0.13355,0.15028,0.12855,0.11285,0.040722,0.076481,0.089424,0.10017999999999999,0.075021,0.031918,0.096649,0.066609,0.008217700000000001,-0.031915,-0.018387999999999998,-0.019185,-0.062789,-0.021694,-0.099597,-0.13385,-0.12616,-0.15488,-0.059557000000000006,-0.077375,-0.17131,-0.12036,-0.031016000000000002,-0.034688,-0.053091,-0.062854,0.038178,0.024294,0.030565,0.14434,0.14589000000000002,0.18954000000000001,0.22336,0.27146,0.35969,0.32926,0.32746,0.39134,0.42396000000000006,0.44345,0.54372,0.53756,0.5054,0.52477,0.54094,0.5746100000000001,0.60349,0.56724,0.5585899999999999,0.61097,0.63758,0.6295,0.63773,0.65179,0.63243,0.6724600000000001,0.67532,0.6743899999999999,0.6838,0.7461800000000001,0.74749,0.7522800000000001,0.79448,0.76032,0.76854,0.78293,0.84464,0.87679,0.84483,0.95106,0.94519,0.9006799999999999,0.9602200000000001,0.96806,0.97836,1.0058,1.001,0.9706899999999999,0.96401,0.8543299999999999,0.6974600000000001,0.7477199999999999,0.80143,0.7734800000000001,0.70322,0.50052,0.3637,0.32637,0.35251,0.5672,0.5277,0.3278,-0.0089391,-0.66423,-1.2952,-2.1993,-3.1294,-4.0323,-3.5919,-2.9387,-1.5556
1,1.4097,0.9525399999999999,0.35670999999999997,-0.32921,-0.6420100000000001,-1.0311,-1.3630000000000002,-1.6277,-1.61,-1.2129,-0.86177,-0.5395800000000001,-0.30127,-0.27059,-0.2587,0.1477,0.49826000000000004,0.63776,0.6110399999999999,0.55088,0.54708,0.52633,0.5010899999999999,0.5000600000000001,0.52765,0.47005,0.50772,0.50044,0.45087,0.4708,0.46953,0.46763000000000005,0.3822,0.41689,0.46456000000000003,0.3742,0.35143,0.3599,0.43221000000000004,0.39645,0.36311,0.28728000000000004,0.29004,0.2763,0.24795999999999999,0.2101,0.17697000000000002,0.16358,0.089388,0.12976,0.11327000000000001,0.06010599999999999,0.065593,-0.037229000000000005,-0.082804,-0.054662,-0.07939500000000001,-0.17273,-0.20325,-0.08558500000000001,-0.097778,-0.12996,-0.14514000000000002,-0.19147,-0.13442,-0.21241,-0.1163,-0.10046000000000001,-0.10542,-0.1069,-0.07689700000000001,0.012958,0.038553,0.12412000000000001,0.16902999999999999,0.26989,0.29281999999999997,0.21746,0.26800999999999997,0.28005,0.30585,0.39784,0.4104,0.37719,0.39865,0.50979,0.48707,0.43773999999999996,0.51626,0.54951,0.6076,0.54427,0.53104,0.59259,0.56291,0.54751,0.56115,0.61151,0.58814,0.55509,0.61603,0.62773,0.60861,0.58316,0.67725,0.64988,0.61593,0.65098,0.70723,0.75572,0.7056100000000001,0.72527,0.7953,0.77942,0.80843,0.9005,0.88481,0.8368200000000001,0.6494300000000001,0.5606399999999999,0.38251,0.33141,0.37014,0.29145,0.1227,-0.20085,-0.2757,-0.45523,-0.76265,-1.0044,-1.1692,-1.3217,-1.8103,-2.3084,-2.9826,-3.1502,-3.9264,-4.232,-4.8666,-3.5101
1,-0.9708100000000001,-1.902,-2.5469,-3.3302,-3.6023,-3.4791,-3.0965,-2.5174,-1.7559,-1.244,-1.1188,-1.0223,-0.5573199999999999,-0.17663,-0.1349,-0.114,-0.13330999999999998,-0.17798,-0.049665,0.092214,-0.037715,-0.15677,-0.14282999999999998,-0.17412,-0.16252,-0.20339000000000002,-0.2269,-0.18428,-0.10980999999999999,-0.037022,-0.12230999999999999,-0.2161,-0.33373,-0.21441,-0.18957000000000002,-0.26984,-0.18077000000000001,-0.23048000000000002,-0.29068,-0.26016,-0.29434,-0.31075,-0.25068,-0.28063,-0.41005,-0.43172,-0.36967,-0.37089,-0.49473,-0.41183000000000003,-0.5281600000000001,-0.51689,-0.49896,-0.49445,-0.55552,-0.6541,-0.62844,-0.69904,-0.73023,-0.60795,-0.46837,-0.53825,-0.53279,-0.53272,-0.51541,-0.51262,-0.49603,-0.5126,-0.56584,-0.53893,-0.37754,-0.28853,-0.21741,-0.21693,-0.26387,-0.10182999999999999,-0.035443,-0.057566,-0.095514,-0.045269,0.056032000000000005,0.08042300000000001,0.099764,0.13151,0.20781,0.10053,0.09820599999999999,0.14153,0.18617,0.29163,0.22996,0.16871,0.17784,0.38406,0.3996,0.46645,0.29357,0.27521999999999996,0.3157,0.33985,0.47236999999999996,0.40947,0.3995,0.4577,0.46943999999999997,0.5453100000000001,0.60961,0.64491,0.6813100000000001,0.64069,0.6131800000000001,0.73197,0.7333,0.81675,0.84005,0.87544,0.8907,0.90455,0.9828100000000001,0.9702700000000001,0.9538200000000001,1.0067,1.1833,1.2644,1.507,1.8465,1.845,1.7109,1.4067,1.1274,1.0645,1.1722,1.9176,2.5023,2.2379,1.8151,1.4933,1.5708,1.3578,0.9165700000000001
5,-2.6113,-1.6082,-1.7455,-4.6825,-4.6415,-4.3552,-3.1906,-2.1451,-1.4156,-0.52273,0.077497,-0.027627999999999996,-0.17487,-0.12632000000000002,0.069366,0.53023,1.0079,1.3639,1.189,1.1591,1.1017,1.1718,1.1801,1.2613,1.3297,1.2976,1.2901,1.3109,1.265,1.208,1.1079,0.99565,0.9214100000000001,0.81603,0.64462,0.58243,0.5404399999999999,0.5047,0.5076,0.5095,0.56143,0.57007,0.57191,0.61456,0.63956,0.6459699999999999,0.65608,0.7085899999999999,0.62287,0.57934,0.46583,0.49278999999999995,0.49708,0.44826000000000005,0.41993,0.37301,0.34626999999999997,0.26816,0.2027,0.22996,0.16634000000000002,0.086551,0.12983,0.11947999999999999,0.1272,0.051003,-0.044342,-0.0016099,-0.029644999999999998,-0.11996,-0.14495,-0.11127999999999999,-0.13446,-0.11175999999999998,-0.18472,-0.22841999999999998,-0.15602,-0.10905,-0.10955999999999999,-0.17031,-0.24602,-0.29567,-0.26172,-0.22078000000000003,-0.28424,-0.2649,-0.24011999999999997,-0.2152,-0.18818,-0.21456,-0.30982,-0.24165999999999999,-0.22475,-0.20302,-0.28219,-0.28274,-0.25033,-0.26458000000000004,-0.25986,-0.26993,-0.2986,-0.23636999999999997,-0.28981999999999997,-0.3397,-0.34005,-0.2681,-0.29144000000000003,-0.25976,-0.24578000000000003,-0.2762,-0.23458,-0.18043,0.023923,0.29070999999999997,0.58863,0.6530699999999999,1.0229,1.2137,1.1118,0.9627,0.5914699999999999,0.2609,-0.29648,-0.66493,-0.65279,-0.70163,-0.73516,-0.7355,-0.7258399999999999,-0.68765,-0.66785,-0.58349,-0.51213,-0.22321999999999997,0.65432,0.74447,0.71192,-0.047102,-0.22865,0.27810999999999997
3,-1.5753,-2.1427,-2.0538,-2.3649,-2.2851,-2.2169,-2.0477,-1.7386,-1.4984,-1.0292,-0.59814,-0.43573999999999996,-0.33555,-0.19125,0.013015,0.21386999999999998,0.24465,0.19226,0.23137,0.21853000000000003,0.16601,0.17923,0.22209,0.29923,0.30166,0.25198000000000004,0.29177,0.30445,0.2742,0.31066,0.30568,0.25013,0.28947,0.31108,0.28423000000000004,0.32637,0.29617,0.21572,0.19161,0.20373,0.32263000000000003,0.41789,0.4049,0.39561,0.36035,0.3546,0.39871,0.38098000000000004,0.36267,0.4164,0.4842,0.48518,0.46195,0.5041100000000001,0.53555,0.5474100000000001,0.59849,0.6098899999999999,0.61955,0.6744600000000001,0.67509,0.65585,0.6906899999999999,0.69434,0.64378,0.59827,0.5446300000000001,0.51074,0.50034,0.48851000000000006,0.5557,0.64517,0.63659,0.6194,0.6277,0.58429,0.56302,0.5917100000000001,0.5664,0.5375800000000001,0.52653,0.50016,0.52754,0.55725,0.5392100000000001,0.50207,0.4487,0.44575,0.47694,0.4684,0.46563000000000004,0.47226,0.43078,0.3723,0.34945,0.32339,0.28281999999999996,0.29123000000000004,0.34144,0.3457,0.32653000000000004,0.40438,0.45575,0.37116,0.34401,0.36365,0.36177,0.41345,0.40992,0.36367,0.36136,0.33854,0.31177,0.2853,0.2511,0.2666,0.24301,0.12655,0.11465,0.20415999999999998,0.21319000000000002,0.22539,0.25782,0.1913,0.09145199999999999,-0.056396,-0.26568,-0.29119,-0.11126,0.0015684000000000002,-0.099468,-0.17084000000000002,-0.49356000000000005,-1.1682,-1.5602,-2.4788,-3.2339,-3.8106,-5.6395,-3.7273
1,-1.3231,-2.1885,-2.5743,-2.7346,-2.6376,-2.5229,-2.053,-1.3711,-0.85483,-0.67199,-0.60252,-0.21319000000000002,0.12524000000000002,0.18749000000000002,0.2437,0.21486,0.24124,0.24691999999999997,0.30548000000000003,0.26565,0.23219,0.21502,0.25877,0.27502,0.25475,0.25866999999999996,0.18065,0.19913,0.27568000000000004,0.22351,0.12532000000000001,0.10307000000000001,0.06827000000000001,0.11265,0.12039000000000001,0.082112,0.10586,0.10430999999999999,0.0093519,0.008904,-0.020056,-0.053234000000000004,0.02578,-0.13689,-0.09862699999999999,-0.077972,-0.11270999999999999,-0.11252999999999999,-0.19672,-0.13388,-0.17820999999999998,-0.06884900000000001,-0.07938400000000001,-0.053512,-0.044933999999999995,-0.068762,0.025347,0.029782,0.093885,0.10878,0.14025,0.17722000000000002,0.19621,0.30421,0.28455,0.31195,0.30680999999999997,0.33455999999999997,0.41518999999999995,0.33825,0.45976999999999996,0.42193,0.43528,0.45771999999999996,0.48461000000000004,0.43898000000000004,0.50613,0.49668,0.51268,0.54127,0.45687,0.49036,0.49268999999999996,0.49073,0.5451699999999999,0.57339,0.61838,0.58336,0.54359,0.56618,0.61921,0.70821,0.64015,0.6661,0.68724,0.65968,0.74527,0.72477,0.75403,0.70985,0.85025,0.78069,0.7492800000000001,0.84341,0.77875,0.86872,0.86026,0.74795,0.77466,0.80934,0.77925,0.7371300000000001,0.76088,0.75352,0.68883,0.77008,0.70323,0.68511,0.63143,0.51125,0.4304,0.37906,0.43288000000000004,0.54008,0.45621000000000006,0.247,0.21025,0.062795,-0.05185599999999999,0.10565,0.14949,-0.18067,-0.68493,-1.1888,-2.0088,-2.5122,-3.5722,-4.0806,-4.3776,-3.4235
5,-0.49962,-2.4716,-3.5582,-3.6595,-3.8283,-3.4019999999999997,-2.3534,-1.5659,-1.4343,-1.0688,-0.28371999999999997,-0.2554,-0.34381999999999996,-0.22801,-0.3419,-0.43613999999999997,-0.40251,-0.33216,-0.32166999999999996,-0.25053000000000003,-0.29418,-0.36086,-0.3336,-0.32185,-0.39457,-0.4104,-0.42093,-0.36058,-0.41007,-0.56805,-0.45828,-0.56055,-0.62521,-0.48925,-0.55795,-0.45624,-0.5068,-0.60922,-0.5089899999999999,-0.43658,-0.33913000000000004,-0.24538000000000001,-0.17257,-0.31065,-0.30504000000000003,-0.15698,-0.060195000000000005,-0.030853,-0.0238,0.1049,0.22488000000000002,0.10203999999999999,-0.036571,-0.090205,0.096135,0.10487,0.016636,0.15320999999999999,0.16205999999999998,0.13632,0.19491,0.18112,0.059916,0.21153000000000002,0.27071999999999996,0.15168,0.29746999999999996,0.31239,0.33333,0.40088,0.39185,0.57129,0.56868,0.5204300000000001,0.51444,0.63602,0.62944,0.5032300000000001,0.44013,0.49388999999999994,0.53192,0.47376,0.42633999999999994,0.44247,0.47872,0.46395,0.50165,0.45147,0.39603,0.45658000000000004,0.30865,0.3343,0.39759,0.3334,0.30622,0.49428999999999995,0.73524,0.84106,0.95001,1.0896,1.4152,1.7805,1.9716,2.161,2.0998,1.9039,1.7994,1.5562,1.1302,0.76958,0.32809,0.042029000000000004,-0.14104,-0.33881999999999995,-0.27321,-0.4305,-0.31538,-0.19739,-0.21419000000000002,-0.3064,-0.49662,-0.38437,-0.31485,-0.26079,-0.29279,-0.29405,-0.20388,-0.014197,0.59492,1.2649,1.3259999999999998,1.743,1.7793,1.1814,0.58282,0.23390999999999998,0.71549,0.6357,-0.79086,-3.0502
5,-2.4206,-3.9156,-4.5651,-4.5935,-3.8553,-2.8181,-1.6821,-1.3411,-0.9783799999999999,-0.33092,-0.24936,-0.20169,-0.24125,-0.18306,-0.074633,-0.19760999999999998,-0.16052,-0.17339000000000002,-0.20861,-0.21653000000000003,-0.21816999999999998,-0.19671,-0.24581,-0.26598,-0.25081,-0.1812,-0.21481999999999998,-0.30346999999999996,-0.3076,-0.30966,-0.43162,-0.43328,-0.43906000000000006,-0.4229,-0.37082,-0.40993999999999997,-0.36382,-0.41784,-0.36759000000000003,-0.30905,-0.28686,-0.22061999999999998,-0.23715999999999998,-0.24401,-0.16635999999999998,-0.059645000000000004,0.027295,-0.096981,0.040551,0.18294000000000002,0.086219,0.09592200000000001,0.069829,0.11135999999999999,0.17762999999999998,0.1578,0.13327,-0.0041084,0.023158,0.12362999999999999,0.16972,0.05859299999999999,0.013571000000000001,-0.023379,0.12789,0.14902,0.19982,0.1973,0.18717,0.20711,0.37659000000000004,0.28735,0.2417,0.41401000000000004,0.43803000000000003,0.48608,0.45669,0.5018199999999999,0.57749,0.48949,0.53041,0.47046000000000004,0.4789,0.48566000000000004,0.39541,0.31549,0.35925,0.37925,0.34796,0.43022,0.46238,0.5212899999999999,0.57489,0.83491,0.89905,0.94479,1.0828,1.3703,1.4613,1.5713,1.4789,1.5573,1.5292,1.3744,1.2234,1.139,0.9693799999999999,0.71209,0.41915,0.22503,0.041187,-0.076223,-0.14734,-0.11640999999999999,-0.072568,-0.1359,-0.09799400000000001,-0.050429,-0.060438,-0.094938,-0.013982,-0.21191999999999997,-0.07103999999999999,-0.021830000000000002,-0.076613,0.12072999999999999,0.31425,0.78346,1.1985,1.1653,1.1951,1.25,0.9937299999999999,0.73337,0.47947,0.4802,0.69084,0.071381,-0.92669,-2.4891
5,-1.9434,-3.7825,-4.4831,-4.6031,-3.5141,-2.2614,-1.7733,-1.2132,-0.35045,-0.3722,-0.42052,-0.39065,-0.38195,-0.31978,-0.26631,-0.29566,-0.32132,-0.3275,-0.3661,-0.32369000000000003,-0.35004,-0.41339,-0.46215,-0.3513,-0.42708999999999997,-0.52127,-0.45808000000000004,-0.58665,-0.6056600000000001,-0.61183,-0.60115,-0.73477,-0.76626,-0.66098,-0.77862,-0.73929,-0.68829,-0.6333300000000001,-0.55142,-0.51561,-0.57043,-0.34163000000000004,-0.29639,-0.20506999999999997,-0.1255,-0.052628999999999995,-0.011792,0.083877,0.065885,-0.029711,0.17242000000000002,0.12353,0.14022,0.052173000000000004,0.08882899999999999,0.13879,0.17740999999999998,0.20108,0.1715,0.19404000000000002,0.24781999999999998,0.26103000000000004,0.28600000000000003,0.29272,0.2982,0.3522,0.4095,0.45028,0.49441999999999997,0.41406000000000004,0.48661000000000004,0.49418,0.56992,0.5586399999999999,0.61315,0.6240899999999999,0.53395,0.51913,0.56584,0.43412,0.43908,0.47198999999999997,0.5227,0.49241999999999997,0.40629,0.35955,0.36025999999999997,0.40271,0.40121999999999997,0.48462,0.42672,0.40266,0.41906000000000004,0.45173,0.42844,0.58316,0.58662,0.7194,0.9667899999999999,1.0746,1.1678,1.4087,1.5175,1.7724,1.7234,1.7166,1.6568,1.4441,1.295,1.1164,0.8574799999999999,0.4768,0.1445,-0.008800200000000001,-0.1198,-0.07140099999999999,-0.070892,-0.14839000000000002,-0.16547,-0.14001,-0.073791,-0.068363,-0.076004,-0.075036,-0.10665999999999999,-0.09600700000000001,0.065347,0.1494,0.38769000000000003,1.0536,1.0688,0.84991,1.0156,0.96049,0.8506600000000001,0.48463999999999996,0.55545,0.51399,-0.38269000000000003,-2.7648
1,0.86339,-0.51966,-1.43,-2.1799,-2.5631,-2.6721,-2.7681,-2.6386,-2.2397,-1.6247,-0.91364,-0.50253,-0.54135,-0.6090399999999999,-0.22086999999999998,0.33031,0.55892,0.5924699999999999,0.57408,0.5162899999999999,0.58919,0.65168,0.63634,0.6592399999999999,0.63923,0.64705,0.65804,0.56317,0.49241,0.52288,0.5817399999999999,0.61406,0.60948,0.61768,0.5756899999999999,0.54356,0.5920000000000001,0.5403,0.54061,0.55538,0.43241,0.40553,0.40375,0.33216999999999997,0.38206999999999997,0.39918000000000003,0.39029,0.43181,0.35443,0.33871999999999997,0.24613000000000002,0.15181,0.20199,0.10054,0.051834000000000005,0.09164299999999999,0.071882,-0.007288899999999999,-0.07334600000000001,-0.031193000000000002,-0.059352999999999996,-0.14232999999999998,-0.11760999999999999,-0.096555,-0.11913,-0.13301,-0.19372999999999999,-0.1949,-0.15279,-0.20010999999999998,-0.23317,-0.19404000000000002,-0.1878,-0.23185,-0.1667,-0.059984,-0.028547000000000003,0.027438999999999998,0.082551,0.15796,0.21243,0.23128,0.33037,0.4169,0.46921999999999997,0.52849,0.5455300000000001,0.54624,0.6039399999999999,0.6729999999999999,0.6984100000000001,0.76791,0.78577,0.6993699999999999,0.7161,0.77466,0.76158,0.80219,0.84167,0.79364,0.8245399999999999,0.89694,0.8477399999999999,0.87069,0.9389799999999999,0.9319299999999999,0.9381700000000001,0.90384,0.9554799999999999,0.9549200000000001,0.8570200000000001,0.92865,0.9508700000000001,0.8921100000000001,0.86166,0.62045,0.39513000000000004,0.44761000000000006,0.42701000000000006,0.25359,0.05214,-0.10312,-0.11913,-0.25023,-0.49805,-0.47922,-0.41072,-0.63029,-0.86261,-1.1325,-1.6722,-2.2304,-2.6976,-3.1102,-3.4168,-3.4671,-2.6856,-1.2528,-0.21958000000000003,1.0173
1,1.4034,0.9950100000000001,0.24253000000000002,-0.67773,-1.0797,-1.4957,-1.8251,-1.8753,-1.4297,-0.9603299999999999,-0.68206,-0.55008,-0.41618999999999995,0.10916,0.293,0.36896,0.24122,0.37181,0.32316,0.26536,0.33432,0.30429,0.29656,0.30544,0.23728000000000002,0.20885,0.26603000000000004,0.24925,0.23001,0.21434,0.20915,0.17332,0.2433,0.11622,0.18345999999999998,0.15652,0.12015999999999999,0.16465,0.091914,0.13480999999999999,0.061003999999999996,0.041135000000000005,0.026458,-0.046504000000000004,0.0064551999999999995,-0.1623,-0.11018,-0.074611,-0.08396,-0.096848,-0.12439000000000001,-0.071791,-0.1254,-0.087147,-0.13504000000000002,-0.083856,0.03694,0.0077691,0.075593,0.043282999999999995,0.11239,0.19782,0.1401,0.25626,0.24944000000000002,0.29816,0.31628,0.36645,0.36183000000000004,0.49423,0.38929,0.37089,0.49628999999999995,0.4879,0.5152399999999999,0.49136,0.49235,0.46147,0.46543,0.51026,0.43877,0.49698000000000003,0.5002300000000001,0.46973000000000004,0.47484,0.5082899999999999,0.53798,0.5362,0.50876,0.5129100000000001,0.60143,0.44209,0.5335,0.6200899999999999,0.58646,0.5644,0.63394,0.64559,0.60683,0.67466,0.69089,0.6702100000000001,0.67366,0.68452,0.65918,0.71345,0.67609,0.65886,0.77593,0.74392,0.66747,0.67811,0.6301800000000001,0.60031,0.5797,0.62448,0.6070399999999999,0.5733600000000001,0.51466,0.55161,0.59426,0.4784,0.41684,0.33893,0.054015,0.038633,0.032145,-0.19292,-0.5151899999999999,-0.8164600000000001,-1.1688,-1.4883,-1.5627,-1.9308,-2.3569999999999998,-2.9352,-3.4479,-4.0455,-4.7632,-5.0284
