0,1,2,3,4,5,6,7,8,9,10,11,12,13,14,15,16,17,18,19,20,21,22,23,24,25,26,27,28,29,30,31,32,33,34,35,36,37,38,39,40,41,42,43,44,45,46,47,48,49,50,51,52,53,54,55,56,57,58,59,60,61,62,63,64,65,66,67,68,69,70,71,72,73,74,75,76,77,78,79,80,81,82,83,84,85,86,87,88,89,90,91,92,93,94,95,96,97,98,99,100,101,102,103,104,105,106,107,108,109,110,111,112,113,114,115,116,117,118,119,120,121,122,123,124,125,126,127,128,129,130,131,132,133,134,135,136,137,138,139,140
4,-0.45793999999999996,-2.9356,-3.9686,-4.1127,-3.8915,-3.0642,-1.9714,-1.5883,-1.2875,-0.50297,-0.28935,-0.35497,-0.28436999999999996,-0.3224,-0.18192,-0.31319,-0.34126999999999996,-0.36069,-0.26557,-0.27784000000000003,-0.40505,-0.39443,-0.44698999999999994,-0.5199699999999999,-0.5062300000000001,-0.43135,-0.52713,-0.67303,-0.6176699999999999,-0.73331,-0.77215,-0.75107,-0.693,-0.7450899999999999,-0.9245700000000001,-0.8690700000000001,-0.8484799999999999,-0.8266700000000001,-0.69944,-0.66267,-0.56316,-0.48936999999999997,-0.44081000000000004,-0.30118,-0.2375,0.002914,-0.012678,0.069855,0.19085,0.13129000000000002,0.18417999999999998,0.25117,0.32161,0.22555999999999998,0.24856999999999999,0.37463,0.33271999999999996,0.28833000000000003,0.3084,0.34796,0.40781999999999996,0.47139,0.4777,0.5302899999999999,0.55199,0.54996,0.5074,0.63194,0.63572,0.6793100000000001,0.75002,0.72067,0.77581,0.82632,0.82534,0.7620100000000001,0.6735899999999999,0.66376,0.61683,0.67432,0.60783,0.53967,0.5464,0.53872,0.5018100000000001,0.60277,0.50593,0.45642,0.42888999999999994,0.45278999999999997,0.38647,0.38911,0.33379000000000003,0.30485999999999996,0.39541,0.45513000000000003,0.70619,0.8456600000000001,1.0626,1.1440000000000001,1.2966,1.5315,1.7885,1.9035,1.7694,1.7224,1.5002,1.2614,1.0687,0.68083,0.45543,0.05318099999999999,-0.34904,-0.35757,-0.44323999999999997,-0.54265,-0.56611,-0.6793,-0.60211,-0.55733,-0.53583,-0.50665,-0.60226,-0.58927,-0.5742,-0.59554,-0.50338,-0.5817,-0.44461999999999996,0.18035,0.6063,0.42381,0.72435,1.0282,1.1544,0.9172,0.74558,1.3063,1.7627,-0.20033
5,-0.27624,-1.3055,-2.0016,-2.8052,-2.9212,-2.7823,-2.4009,-1.9175,-1.2749,-0.81297,-0.62666,-0.49376000000000003,-0.30230999999999997,0.089568,0.45235,0.5503899999999999,0.46936000000000005,0.44376000000000004,0.48746000000000006,0.49961000000000005,0.46867,0.43411000000000005,0.51652,0.4324,0.36109,0.48543000000000003,0.48066000000000003,0.4843,0.44709,0.5181100000000001,0.54464,0.45497,0.52,0.48545,0.51222,0.47313,0.36938000000000004,0.39899999999999997,0.36868,0.33313000000000004,0.30328,0.33826,0.33554,0.30596999999999996,0.30219,0.24386,0.24713000000000002,0.18206,0.11342999999999999,0.14961,0.15505,0.17574,0.1855,0.13183,0.095071,0.037791000000000005,-0.057101,-0.081458,-0.077789,-0.12645,-0.16821,-0.15219000000000002,-0.11281,-0.10447000000000001,-0.1238,-0.14132,-0.14124,-0.10597999999999999,-0.14193,-0.073306,0.046959,-0.080967,-0.06446,0.098977,0.10413,0.16316,0.26665,0.28239000000000003,0.32916,0.39771999999999996,0.47716000000000003,0.49966000000000005,0.53252,0.58697,0.55209,0.6751699999999999,0.68634,0.59365,0.6991,0.73593,0.6812199999999999,0.64749,0.6895399999999999,0.77047,0.77279,0.73463,0.73395,0.79637,0.85721,0.7558600000000001,0.73185,0.77879,0.75663,0.8530399999999999,0.85359,0.86541,0.83034,0.76394,0.89133,0.9132600000000001,0.9309299999999999,0.9919899999999999,1.0379,0.98835,0.9079200000000001,0.91435,0.78285,0.62098,0.39419,0.35712,0.42794,0.24423000000000003,0.11918,-0.049086000000000005,-0.11555,-0.16568,-0.2934,-0.32268,-0.48558999999999997,-0.65313,-0.9159200000000001,-1.4611,-1.8642,-2.3528,-2.824,-3.185,-3.8653,-3.3376,-2.8209,-1.1204
4,-1.0174,-3.4619999999999997,-3.8047,-3.9684,-3.7228,-2.9789999999999996,-1.9621,-1.4955,-1.3156,-0.6573100000000001,-0.37006999999999995,-0.41605,-0.37787,-0.37344,-0.33886,-0.35141999999999995,-0.42333999999999994,-0.36935999999999997,-0.33369,-0.41273000000000004,-0.41318,-0.40565,-0.42803,-0.38623,-0.48882,-0.5506800000000001,-0.6419699999999999,-0.62942,-0.67607,-0.79761,-0.6308,-0.6624399999999999,-0.69498,-0.7512,-0.7338100000000001,-0.73356,-0.70302,-0.66882,-0.60551,-0.58315,-0.46018000000000003,-0.45238,-0.40963999999999995,-0.33061,-0.28989000000000004,-0.19004000000000001,-0.18081,-0.1417,-0.09602100000000001,-0.10025,-0.054759,-0.034858,-0.034181,0.019436000000000002,-0.086658,0.011695,0.035613,-0.05940499999999999,0.10452,0.015898,0.032293999999999996,0.044652,0.08228400000000001,0.075396,0.11588,0.05525700000000001,0.21443,0.20202,0.29698,0.24679,0.31895,0.41828999999999994,0.40037,0.50932,0.43799,0.52688,0.56255,0.48828999999999995,0.51269,0.45611999999999997,0.39249,0.34912,0.39177,0.36391,0.30923,0.24415,0.37740999999999997,0.28497,0.33421,0.27474,0.28396,0.26938,0.32327,0.39821,0.4626,0.53877,0.71145,0.9053899999999999,1.0393,1.3323,1.6202,2.0211,2.2336,2.105,2.1141,1.774,1.6724,1.3533,0.98785,0.78078,0.23721,0.030746,-0.18117,-0.21356,-0.13699999999999998,-0.21522,-0.15930999999999998,-0.16609000000000002,-0.20342000000000002,-0.18675999999999998,-0.09920599999999999,-0.12445999999999999,-0.13041,-0.21028000000000002,-0.092714,-0.045843,-0.16464,0.042679,0.25456999999999996,0.68174,1.214,1.2694,1.3946,1.4055,1.2034,1.0019,0.9378200000000001,1.1435,1.76,0.5773699999999999
4,-0.49045,-2.2007,-3.2323,-4.0917,-4.2,-3.7692,-3.1613,-1.9182,-1.36,-1.2886,-0.61334,-0.37011,-0.21322,-0.22396,-0.36426,-0.27919,-0.32624000000000003,-0.24158000000000002,-0.24886999999999998,-0.2083,-0.28645,-0.36275,-0.25467,-0.34283,-0.35047,-0.24086,-0.36189,-0.5072300000000001,-0.37779,-0.32206,-0.54392,-0.62993,-0.45631000000000005,-0.4998,-0.42195,-0.52523,-0.55453,-0.36002,-0.35078000000000004,-0.6316,-0.59199,-0.41745,-0.265,-0.39111,-0.41773000000000005,-0.046479,0.16262000000000001,-0.08988,0.014905000000000002,0.23668000000000003,0.16799,0.14157999999999998,0.021138,0.047968000000000004,-0.007014699999999999,0.06452100000000001,0.15429,0.11943,0.15785,0.030923000000000003,0.12294000000000001,0.19271,0.060384,0.11145999999999999,0.12444000000000001,0.026668,0.11392999999999999,0.17908,0.17859,0.26936,0.39858000000000005,0.43951999999999997,0.29819,0.4033,0.53841,0.69514,0.46638999999999997,0.3866,0.44691000000000003,0.58837,0.70192,0.72313,0.72068,0.46668999999999994,0.71645,0.6381100000000001,0.5394899999999999,0.58018,0.51055,0.47331999999999996,0.5132399999999999,0.68729,0.75093,0.6259899999999999,0.86551,1.1340000000000001,1.3571,1.3564,1.3561,1.7245,1.8814,1.7497,1.6503,1.574,1.2696,1.064,1.0242,1.014,0.5111600000000001,-0.02284,-0.049982,-0.22066,-0.30377,-0.20695,-0.3274,-0.21556999999999998,-0.23705,-0.23478000000000002,-0.22285,-0.076809,-0.36351,-0.48946000000000006,-0.17392,-0.22749,-0.26805999999999996,-0.087861,0.21495999999999998,0.5693699999999999,0.98016,1.2404,1.2273,1.4414,1.7246,1.4791,0.7770100000000001,0.031383,-0.11284000000000001,0.017644999999999997,-0.28154,-1.7113
5,-0.72959,-1.5491,-1.8463,-2.5733,-2.8435,-2.9892,-2.8289999999999997,-2.3356,-1.8975,-1.4809,-1.1325,-0.9221600000000001,-0.81082,-0.6545300000000001,-0.37489,0.041794,0.38204,0.38069000000000003,0.34641,0.43283,0.34343,0.28317,0.36569,0.37398000000000003,0.41834,0.46591000000000005,0.37893000000000004,0.37106,0.43303,0.37478,0.34306,0.36069,0.35549000000000003,0.35738000000000003,0.29538000000000003,0.29841999999999996,0.41412,0.38311999999999996,0.26411,0.28865999999999997,0.31573,0.23434000000000002,0.23598000000000002,0.2843,0.22566,0.19593,0.19416,0.1927,0.25529,0.2163,0.18403,0.23803000000000002,0.1752,0.12655999999999998,0.15739,0.15165,0.098038,0.055258,0.10021000000000001,0.10975,0.050668,0.038610000000000005,0.051618,0.078127,0.069227,0.038812,0.056688,0.05876900000000001,0.075205,0.10278,0.098038,0.12735,0.1628,0.19371,0.22095,0.25127,0.30715,0.31306,0.33229000000000003,0.39976,0.45896000000000003,0.54707,0.5727300000000001,0.55057,0.57097,0.5982,0.65522,0.6671100000000001,0.6786800000000001,0.7279899999999999,0.72032,0.77127,0.77468,0.75297,0.8414299999999999,0.79327,0.74487,0.8302299999999999,0.82714,0.81844,0.8379700000000001,0.77486,0.78122,0.86359,0.85465,0.8637100000000001,0.8861700000000001,0.84501,0.8900399999999999,0.95429,0.9220700000000001,0.9103600000000001,0.90596,0.7914399999999999,0.6618,0.6207199999999999,0.58134,0.53345,0.55703,0.5841,0.51805,0.38137,0.27141,0.2069,0.16727,0.24736,0.23598000000000002,-0.026055000000000002,-0.25916,-0.61847,-1.2661,-1.8299,-2.3428,-3.0115,-3.4421,-3.5631,-3.0545,-1.8689,-1.0761,0.25146999999999997
5,-0.9228200000000001,-1.1388,-1.1923,-1.5928,-1.5459,-1.7078,-1.89,-2.0066,-2.0884,-2.0255,-1.8079,-1.4144,-1.0098,-0.67689,-0.47955,-0.40351,-0.22355999999999998,0.10662999999999999,0.29195,0.28244,0.34745,0.41163,0.34528000000000003,0.32168,0.31906,0.31561,0.3626,0.35358,0.31204,0.31801999999999997,0.32231,0.30448000000000003,0.31039,0.33548,0.34304,0.32419000000000003,0.30787,0.34671,0.3565,0.28055,0.27,0.31272,0.3254,0.32315,0.29853,0.29208,0.29794,0.31990999999999997,0.33687,0.28665999999999997,0.26607,0.31214000000000003,0.32014000000000004,0.30896999999999997,0.30927,0.28485,0.2786,0.27524,0.26492,0.28045,0.29224,0.31226,0.33971999999999997,0.35903,0.34820999999999996,0.29803,0.28424,0.33299,0.38976,0.39395,0.3967,0.43636,0.4407,0.44703999999999994,0.42977,0.41388,0.47701000000000005,0.49983,0.51571,0.5571699999999999,0.55665,0.5576300000000001,0.5602699999999999,0.55082,0.5363600000000001,0.5283399999999999,0.52867,0.52836,0.53057,0.52958,0.55525,0.55328,0.49032,0.46817,0.4718,0.47486000000000006,0.5068,0.51432,0.49001000000000006,0.46865,0.45115,0.50834,0.5251399999999999,0.46893,0.51877,0.50198,0.47346000000000005,0.49837,0.46936000000000005,0.52803,0.5346,0.51631,0.54867,0.55853,0.60106,0.5614100000000001,0.49978,0.41533000000000003,0.26823,0.28033,0.40731,0.49168999999999996,0.5498,0.5131600000000001,0.42801999999999996,0.41657,0.40846,0.47339,0.50393,0.40615,0.22751999999999997,-0.27057,-0.82757,-1.5490000000000002,-2.1858,-3.0282,-4.0742,-4.191,-4.8444,-3.1053
4,-0.44048000000000004,-3.0589,-4.039,-4.4804,-4.2757,-3.2674,-1.9223,-1.6929,-1.08,-0.23898000000000003,-0.18684,-0.23685,-0.30867,-0.24249,-0.27224,-0.16827,-0.23206,-0.22135,-0.27907,-0.24973,-0.27196,-0.2842,-0.21689,-0.30782,-0.35874,-0.35775,-0.28973000000000004,-0.48144,-0.38784,-0.49728,-0.49265,-0.59235,-0.69894,-0.7076399999999999,-0.7128399999999999,-0.79042,-0.7639600000000001,-0.72596,-0.7500899999999999,-0.69655,-0.6211800000000001,-0.5505899999999999,-0.55186,-0.39692,-0.24575,-0.24433000000000002,-0.10615999999999999,-0.05107,-0.044291000000000004,0.07723300000000001,0.099877,0.0049332,0.10754000000000001,0.23435999999999998,0.17034000000000002,0.20399,0.28798,0.34029,0.30732,0.43909,0.34955,0.36471,0.48396999999999996,0.44841000000000003,0.34015,0.41001000000000004,0.54919,0.44958000000000004,0.6310399999999999,0.5646100000000001,0.61144,0.60025,0.63457,0.74635,0.6996899999999999,0.6080800000000001,0.55582,0.48925,0.5784600000000001,0.50692,0.54485,0.51761,0.58343,0.40879,0.42063,0.44935,0.39651,0.40354,0.43235,0.46351000000000003,0.32773,0.39232,0.34909,0.32889,0.39781,0.35789,0.41996999999999995,0.29741999999999996,0.35399,0.5874,0.9375100000000001,1.1006,1.2534,1.3786,1.6001,1.7781,1.8242,1.8545,1.6769,1.4537,1.1897,1.0527,0.84436,0.3836,-0.020146,-0.3298,-0.36803,-0.35706,-0.26818000000000003,-0.35303,-0.51413,-0.57796,-0.45875,-0.37446,-0.34959,-0.43368999999999996,-0.39538,-0.4313,-0.33728,-0.16845,0.24931,1.2064,1.4009,1.4809,1.4845,0.81622,0.24853000000000003,-0.47622,0.40755,-0.64574
4,1.3203,-0.68304,-2.8271,-3.7368,-3.7904,-3.6595,-2.9537,-1.913,-1.5747,-1.2122,-0.51862,-0.34714,-0.44054,-0.44685,-0.35162,-0.34615,-0.36744,-0.46183,-0.38978,-0.48467,-0.45816999999999997,-0.38793,-0.51303,-0.5101899999999999,-0.61728,-0.59124,-0.6160100000000001,-0.68138,-0.64881,-0.7316699999999999,-0.80528,-0.80643,-0.85735,-0.87029,-0.9694799999999999,-1.0205,-1.0426,-0.98929,-0.9370200000000001,-0.8411299999999999,-0.81301,-0.81545,-0.7116100000000001,-0.61419,-0.53765,-0.4589,-0.44781000000000004,-0.27751,-0.25819000000000003,-0.17514000000000002,-0.17633,-0.067964,-0.14932,-0.16254000000000002,-0.10438,-0.14264000000000002,-0.086764,0.0029793000000000003,-0.069498,0.033775,0.082582,0.10353,0.1143,0.1544,0.27084,0.2741,0.25729,0.30796,0.35226999999999997,0.46195,0.41986999999999997,0.5408,0.50483,0.5175,0.55871,0.5827100000000001,0.53615,0.46058999999999994,0.46455,0.5191100000000001,0.3872,0.49543000000000004,0.40763,0.37585999999999997,0.39785,0.38295,0.39571,0.28717,0.26784,0.24593,0.30401999999999996,0.36038000000000003,0.27228,0.31713,0.39485,0.44627,0.5413899999999999,0.59787,0.8977700000000001,1.0271,1.1314,1.3346,1.5597,1.8802,1.8504,1.8289,1.7241,1.5233,1.3731,1.1793,0.86466,0.58455,0.21589,-0.039803,-0.20554,-0.085663,-0.069272,-0.13343,-0.10924,-0.11893,-0.096795,-0.08225700000000001,-0.12404000000000001,-0.06746,-0.08425099999999999,-0.079946,-0.11044000000000001,-0.029468,-0.0069181,0.31873,0.93091,1.1997,1.3457,1.6057,1.6587,1.4082,1.1969,1.2786,2.0424,1.2329999999999999
5,0.37651,0.29765,-0.13827,-0.75116,-1.1142,-1.3113,-1.5407,-1.6619,-1.5742,-1.2395,-0.9895,-0.88228,-0.8483200000000001,-0.67882,-0.3405,-0.35939,-0.37048000000000003,-0.38005,-0.38811999999999997,-0.37549,-0.34579,-0.33896,-0.36214,-0.36737,-0.30372,-0.31617,-0.31032,-0.36818,-0.33073,-0.29436999999999997,-0.34605,-0.34885,-0.36949,-0.32904,-0.34576,-0.35472,-0.33693,-0.37763,-0.3464,-0.36774,-0.42533000000000004,-0.41048999999999997,-0.44246,-0.40688,-0.44451999999999997,-0.46953999999999996,-0.4821,-0.46718000000000004,-0.43382,-0.45688999999999996,-0.47015,-0.4492,-0.42841,-0.47355,-0.4578,-0.39614,-0.36804000000000003,-0.36496999999999996,-0.37101,-0.34812,-0.28933000000000003,-0.27398,-0.25456,-0.25118,-0.20110999999999998,-0.14369,-0.13721,-0.11102999999999999,-0.095549,0.0052469,-0.031139999999999998,-0.036129,0.017634,0.049996,0.0603,0.026226999999999997,0.07683200000000001,0.064776,0.082166,0.13623,0.12999000000000002,0.11805999999999998,0.10780999999999999,0.13443,0.17325,0.19047,0.16024000000000002,0.13458,0.17284000000000002,0.19035,0.1831,0.22218000000000002,0.25921,0.26547,0.29081,0.32811,0.30711,0.31517,0.41036000000000006,0.38013,0.42888999999999994,0.4148,0.44537,0.48226,0.50061,0.5857,0.65362,0.75338,0.8460700000000001,0.9282100000000001,1.0485,1.1615,1.2004,1.3418,1.4891,1.6392,1.7927,1.8772,2.0292,2.2259,2.4731,2.5646,2.7639,2.9036,2.7988,2.3989,2.0257,1.6811,0.88131,0.26516,-0.15853,-0.45201,-0.68061,-1.1165,-1.7927,-2.3384,-2.7775,-2.7964,-2.2861,-1.6729
5,-1.2119,-1.7819,-1.5006,-1.8492,-1.8809,-1.9577,-2.2127,-2.1433,-2.021,-1.8563,-1.536,-1.1625,-0.8349,-0.69338,-0.6240899999999999,-0.4614,-0.23653000000000002,-0.017067,0.13775,0.17890999999999999,0.15977,0.1509,0.17709,0.19025999999999998,0.13960999999999998,0.12707000000000002,0.16059,0.15869,0.1864,0.21978000000000003,0.20455,0.22816,0.25090999999999997,0.24614,0.26366,0.22896999999999998,0.18385,0.20203,0.21611999999999998,0.23051999999999997,0.24638000000000002,0.22252,0.2184,0.24508000000000002,0.24414,0.20573000000000002,0.16321,0.17317000000000002,0.21606,0.24151999999999998,0.25034,0.22280999999999998,0.18838,0.24723,0.33978,0.3231,0.23785,0.1843,0.15367999999999998,0.1605,0.21896999999999997,0.2299,0.19965,0.21318,0.24816,0.26805,0.25751999999999997,0.2529,0.29255,0.29791999999999996,0.30136,0.38101999999999997,0.38991,0.3147,0.33405,0.4212,0.44501,0.42676000000000003,0.44606,0.48791,0.50322,0.54097,0.6119899999999999,0.62425,0.61034,0.63449,0.6734899999999999,0.72033,0.73453,0.70977,0.72929,0.7564,0.7350300000000001,0.74063,0.7613800000000001,0.71902,0.67974,0.70921,0.72715,0.72354,0.74635,0.7509,0.72553,0.7073699999999999,0.71338,0.7538699999999999,0.7822100000000001,0.7650600000000001,0.76708,0.79114,0.77071,0.73693,0.7602,0.77893,0.69867,0.5805899999999999,0.51639,0.49888999999999994,0.56297,0.71444,0.81092,0.8409200000000001,0.8539100000000001,0.78393,0.6359,0.45151,0.29915,0.22878,0.1235,-0.15411,-0.49283999999999994,-0.83125,-1.4619,-1.9408,-2.2256,-3.0891,-3.3965,-3.6239999999999997,-4.5608,-2.1894
4,3.9641,1.2932,-0.6955399999999999,-1.5993,-1.4991,-1.1245,-0.014478,0.619,0.8528100000000001,1.4557,1.611,1.7288,1.7273,1.6545,1.7077,1.6015,1.5308,1.4799,1.3505,1.4011,1.3067,1.2865,1.1819,1.0494,1.0515,0.98603,0.86941,0.78745,0.79335,0.64896,0.47598999999999997,0.5081,0.37785,0.31376,0.2898,0.17274,0.28418000000000004,0.30024,0.28549,0.18957000000000002,0.16894,0.2553,0.30541999999999997,0.3697,0.38673,0.45352,0.48315,0.49251999999999996,0.49108999999999997,0.52094,0.44073,0.43696,0.44776000000000005,0.4042,0.30953,0.36706,0.38659,0.2808,0.31209000000000003,0.26324000000000003,0.23629,0.23425,0.18729,0.23285,0.15133,0.20672,0.20629,0.1643,0.22732,0.14918,0.21974000000000002,0.2107,0.26577,0.24154,0.16756,0.18054,0.26695,0.23878000000000002,0.074821,0.10188,0.11270999999999999,0.022441,-0.022026,-0.053302999999999996,-0.17570999999999998,-0.12204000000000001,-0.16978,-0.22595,-0.27628,-0.25064000000000003,-0.36980999999999997,-0.37767,-0.4958,-0.46661,-0.51161,-0.47316,-0.38591,-0.3114,-0.16671,-0.076649,0.094912,0.31356999999999996,0.54032,0.69953,0.58282,0.5869800000000001,0.4512,0.24023000000000003,-0.06979400000000001,-0.36593000000000003,-0.62789,-0.97025,-1.435,-1.5653,-1.6292,-1.6255,-1.757,-1.7739,-1.801,-1.8144,-1.8330000000000002,-1.8569,-1.8804,-1.9567,-1.9036,-1.9252,-1.9633,-1.8952,-1.8761,-1.5972,-1.0178,-1.0022,-1.0464,-0.9259799999999999,-0.75249,-0.9290700000000001,-0.8674200000000001,-0.77627,0.31699,-1.3349
4,1.1316,0.20972,-1.7287,-2.9883,-3.9560000000000004,-4.2354,-3.1859,-2.0754,-1.808,-1.0036,-0.29886,-0.27228,-0.28857,-0.36922,-0.37216,-0.34452,-0.30275,-0.25735,-0.33147,-0.36945,-0.47048,-0.49999,-0.47456000000000004,-0.5009600000000001,-0.5703199999999999,-0.66804,-0.72038,-0.72606,-0.67289,-0.9074,-0.7771899999999999,-0.907,-1.0114,-1.0835,-1.0149,-1.0812,-1.0648,-1.1212,-1.0138,-0.9452799999999999,-0.91894,-0.80089,-0.87545,-0.61041,-0.52957,-0.49625,-0.30059,-0.27798,-0.3024,-0.098344,-0.074323,-0.039349,-0.016753,0.1049,0.0049799,0.10844000000000001,0.24339,0.12315,0.22999,0.23808,0.28428000000000003,0.25992,0.34431,0.43566000000000005,0.46373000000000003,0.5343399999999999,0.6590600000000001,0.52273,0.58502,0.6926,0.64982,0.74493,0.5935699999999999,0.56942,0.62995,0.53285,0.63647,0.6057899999999999,0.56662,0.5383899999999999,0.5555399999999999,0.52595,0.53152,0.44645,0.51858,0.49256000000000005,0.47616,0.40678000000000003,0.47567,0.50703,0.36994,0.3904,0.41789,0.26371,0.35022,0.2936,0.29244000000000003,0.3368,0.38952,0.30626,0.38418,0.52971,0.68511,1.0315,1.2705,1.4215,1.5061,1.8630000000000002,2.2913,2.3083,2.2234,2.0527,1.8396,1.5494,1.0933,0.52175,-0.065854,-0.27396,-0.33349,-0.32893,-0.34128000000000003,-0.27157,-0.24381,-0.19798,-0.28226,-0.28886,-0.29072,-0.28944000000000003,-0.2776,-0.2797,-0.18717,-0.20031,0.29475,0.8461299999999999,0.81811,1.1904,1.1469,0.96014,0.16435999999999998,0.33044
4,-0.54623,-2.5704,-3.7301,-4.3865,-4.3382,-3.2779,-1.9461,-1.5904,-1.119,-0.27976,-0.14918,-0.17448,-0.14792,-0.13027,-0.16919,-0.16491,-0.1723,-0.10547999999999999,-0.13612,-0.33516999999999997,-0.27731999999999996,-0.18316,-0.18432,-0.26409,-0.34224,-0.40345,-0.42846000000000006,-0.36145,-0.41677,-0.43123,-0.55529,-0.6242300000000001,-0.5635,-0.6270100000000001,-0.74556,-0.66273,-0.64527,-0.6521100000000001,-0.6351600000000001,-0.59034,-0.53132,-0.50968,-0.47644,-0.32744,-0.18491,-0.1978,-0.11642999999999999,-0.043637999999999996,0.015063,0.027752999999999996,0.056896,0.067064,0.064462,0.13577,0.06088,0.16059,0.19211,0.22086999999999998,0.28686999999999996,0.23847,0.26754,0.26674000000000003,0.2699,0.30456,0.33077,0.44896,0.41668,0.46371999999999997,0.39663000000000004,0.5522,0.5731,0.54594,0.60847,0.6519199999999999,0.58914,0.56726,0.4705,0.41775,0.50798,0.36948000000000003,0.34851,0.51471,0.4352,0.35600000000000004,0.29575,0.32921,0.3145,0.27742,0.24811,0.25724,0.21315,0.22794,0.24503000000000003,0.20307999999999998,0.21154,0.35386,0.42458999999999997,0.69575,0.9579,1.226,1.3574,1.5,1.7755,2.1184,2.1798,2.0566,1.882,1.5891,1.3039,1.0672,0.65952,0.37258,0.0030624000000000003,-0.36374,-0.48186999999999997,-0.52863,-0.5192399999999999,-0.46041000000000004,-0.5371600000000001,-0.5242600000000001,-0.46791000000000005,-0.54808,-0.56045,-0.52049,-0.44683999999999996,-0.5596800000000001,-0.50452,-0.60316,-0.38976,-0.15223,0.33382,0.7308600000000001,0.81117,1.0677,1.1581,1.0096,0.97259,1.3673,1.9851,-0.36335
4,-2.0043,-3.5442,-4.3593,-4.3766,-3.9739,-3.2648,-2.0392,-1.5486,-1.1514,-0.6227600000000001,-0.45158999999999994,-0.44675,-0.41831999999999997,-0.38521,-0.32164,-0.3971,-0.33644,-0.37522,-0.36551,-0.3552,-0.43251999999999996,-0.41476,-0.37797,-0.48849,-0.43075,-0.36313,-0.45056999999999997,-0.4383,-0.62708,-0.58738,-0.5724199999999999,-0.62873,-0.6080800000000001,-0.7024199999999999,-0.68324,-0.62875,-0.63956,-0.58029,-0.5384899999999999,-0.54706,-0.48978,-0.42421000000000003,-0.31754,-0.26056999999999997,-0.22962,-0.13876,-0.14878,-0.07198,0.014443000000000001,-0.067595,-0.0388,-0.012615000000000001,-0.014204,-0.012387,0.11112999999999999,0.1075,0.050455,-0.005451300000000001,0.042689,0.030612999999999998,0.08341699999999999,0.1037,0.11027999999999999,0.086596,0.068052,0.13365,0.2019,0.23636,0.24739,0.31276,0.3278,0.31627,0.35556,0.49149,0.5374899999999999,0.54889,0.60963,0.52355,0.5461600000000001,0.55918,0.5018,0.52574,0.5704899999999999,0.54196,0.5676800000000001,0.56976,0.50245,0.51431,0.5103800000000001,0.48236999999999997,0.42028000000000004,0.42025,0.50425,0.66622,0.78127,0.88513,1.0222,1.1055,1.2362,1.3184,1.4809,1.6606,1.5653,1.6031,1.4333,1.3052,1.22,1.001,0.87672,0.62769,0.27554,0.18772,0.08541,0.12222000000000001,0.10151,0.0042879,0.063849,0.07433200000000001,0.037222000000000005,0.02053,0.042828,0.052891999999999995,0.0292,0.029095999999999997,0.067125,0.088549,0.23317,0.37637,0.8156100000000001,1.0761,0.9416100000000001,1.0675,1.0651,0.88205,0.88345,0.79528,0.8707600000000001,0.9427399999999999,0.35873,-1.058
4,-1.2192,-3.1742,-4.0797,-4.1977,-3.9167,-3.3389,-2.2596,-1.4879,-1.3846,-0.8184,-0.32903000000000004,-0.24573000000000003,-0.20947,-0.29265,-0.24215,-0.097825,-0.12572,-0.18698,-0.24670999999999998,-0.25325,-0.28115999999999997,-0.31173,-0.35893,-0.31436,-0.3237,-0.38774000000000003,-0.45826999999999996,-0.32618,-0.42161000000000004,-0.42951999999999996,-0.5206,-0.6136199999999999,-0.6168600000000001,-0.5826600000000001,-0.58839,-0.5455800000000001,-0.6583,-0.62292,-0.6030399999999999,-0.55106,-0.49068,-0.52641,-0.4,-0.32733,-0.26909,-0.2192,-0.09965399999999999,-0.15822,-0.00030202,0.086824,-0.018602,0.084125,0.1333,0.081566,0.06854400000000001,-0.040284,0.027124000000000002,0.15095,0.042046,0.082207,0.15175,0.1825,0.16213,0.096877,0.11118,0.15907000000000002,0.19330999999999998,0.15665,0.19272999999999998,0.31134,0.27176,0.36436999999999997,0.42172,0.44982,0.5085,0.49193000000000003,0.50284,0.59727,0.53908,0.5042399999999999,0.51343,0.55452,0.5260100000000001,0.49921000000000004,0.44335,0.37717,0.49477,0.44468,0.3284,0.46042,0.43044,0.42835,0.46491000000000005,0.51975,0.6273,0.79322,0.93035,1.1568,1.4235,1.7551,1.9179,2.0485,2.094,1.7989,1.5961,1.5363,1.2905,0.90464,0.5029,0.16881,-0.072464,-0.2663,-0.32489,-0.27399999999999997,-0.36887,-0.36648000000000003,-0.28684,-0.40871,-0.30651,-0.27616999999999997,-0.27865999999999996,-0.23066,-0.22358000000000003,-0.31131,-0.27565,-0.32321,-0.27466,-0.07324299999999999,0.25506,0.72105,1.0118,0.9739700000000001,1.131,1.3288,1.3073,1.2401,0.90541,0.9526600000000001,1.0931,0.038327
5,0.9001600000000001,1.0797,0.84105,0.157,-0.40107,-0.82945,-0.8948799999999999,-1.1925,-1.4236,-1.5458,-1.5191,-1.1647,-0.8253,-0.60396,-0.52662,-0.32966999999999996,-0.21961,-0.052903,0.32394,0.45268,0.54388,0.5069,0.43886000000000003,0.51695,0.47611000000000003,0.44333,0.43137,0.42606000000000005,0.4696,0.54022,0.55276,0.45337,0.41462,0.44606999999999997,0.43066000000000004,0.43163999999999997,0.46245,0.41194,0.38459,0.4712,0.44733,0.37585,0.409,0.38991,0.34936,0.3447,0.30493000000000003,0.29503,0.30899,0.29066,0.30291,0.32497,0.32900999999999997,0.28913,0.22701,0.23151999999999998,0.252,0.25298000000000004,0.24477,0.19185,0.15450999999999998,0.13824,0.10062,0.13452,0.1601,0.088045,0.065384,0.098913,0.10094,0.10047,0.098751,0.1014,0.070802,0.061427999999999996,0.16027,0.19814,0.20210999999999998,0.21796999999999997,0.21448000000000003,0.2135,0.23905,0.31237,0.26831,0.27996,0.35867,0.38841,0.49141999999999997,0.46855,0.44897,0.53741,0.53042,0.54078,0.5622199999999999,0.5159199999999999,0.58444,0.6835899999999999,0.63474,0.65995,0.73105,0.66706,0.66956,0.68785,0.64373,0.6543399999999999,0.65358,0.65252,0.64442,0.63026,0.63518,0.6341600000000001,0.66671,0.73146,0.7863600000000001,0.82189,0.8175899999999999,0.7568,0.65982,0.56225,0.47467,0.36455,0.29964,0.28476999999999997,0.14903,-0.08090599999999999,-0.21070999999999998,-0.30704000000000004,-0.59664,-0.9096700000000001,-1.0053,-1.1394,-1.442,-1.8117,-2.186,-2.7352,-3.1211,-3.5108,-4.1796,-4.03,-4.3782,-2.4607
4,1.216,-0.84273,-2.4155,-3.391,-4.0242,-3.9252,-2.7789,-1.8328,-1.6843,-1.0005,-0.29795,-0.2859,-0.28164,-0.2887,-0.25623,-0.29659,-0.29591999999999996,-0.34936,-0.24381999999999998,-0.37176,-0.36038000000000003,-0.5072,-0.44763000000000003,-0.49701999999999996,-0.56729,-0.56562,-0.62742,-0.62127,-0.74424,-0.71567,-0.74121,-0.79308,-0.919,-0.90464,-1.0094,-0.88661,-0.88475,-1.0542,-0.8498,-0.8967,-0.87736,-0.90048,-0.7591100000000001,-0.56299,-0.6213,-0.49313999999999997,-0.3758,-0.38505,-0.31396,-0.16958,-0.15459,-0.12287000000000001,-0.17586,-0.15735,-0.18445,-0.027727999999999996,-0.092277,-0.13530999999999999,-0.048109,0.005261999999999999,0.0049994,-0.012245,0.1493,0.08390399999999999,0.022241,0.015745,0.14589000000000002,0.20481999999999997,0.27392,0.34652,0.39726,0.32648,0.38728,0.52856,0.46219,0.53473,0.54589,0.6514,0.46271999999999996,0.48994,0.5845600000000001,0.46008000000000004,0.46476000000000006,0.42891,0.3664,0.29846,0.49611000000000005,0.46388,0.36145,0.44678,0.40343,0.29674,0.33529000000000003,0.26641,0.28774,0.3064,0.27624,0.26086,0.34886,0.28064,0.61161,0.8752700000000001,1.1891,1.3037,1.3362,1.5007,1.9918,2.2484,2.1683,2.0482,1.7458,1.7017,1.4678,1.199,0.70162,0.23551999999999998,-0.13918,-0.21736999999999998,-0.14634,-0.17344,-0.20524,-0.15579,-0.07674,-0.17065999999999998,-0.1318,-0.093753,-0.056247000000000005,-0.046807,-0.010196,-0.046457,0.1527,0.32576,0.8498600000000001,1.411,1.4583,1.7766,1.6627,1.6789,1.0170000000000001,0.34897
4,0.24846999999999997,-2.1253,-3.3908,-4.3063,-4.1551,-3.1087,-2.0693,-1.6281,-1.0793,-0.31893,-0.32827,-0.50095,-0.28538,-0.27479000000000003,-0.2755,-0.28743,-0.28526999999999997,-0.37834,-0.48712,-0.49501999999999996,-0.45668000000000003,-0.49388999999999994,-0.5654100000000001,-0.46793999999999997,-0.61273,-0.60834,-0.72805,-0.61795,-0.71501,-0.79369,-0.86639,-0.9874700000000001,-1.0444,-1.0596,-0.95896,-1.0112,-1.0271,-1.1185,-1.1441,-0.9205700000000001,-0.8125,-0.7877,-0.73255,-0.50084,-0.44267,-0.45387,-0.34819,-0.16435999999999998,-0.044714,-0.22366,-0.1989,-0.18274,-0.10489000000000001,0.10227,-0.07148600000000001,-0.17109000000000002,-0.070698,0.0025305999999999996,0.082302,0.057285,0.00065172,0.10319,0.16043,0.23959,0.11065,0.17687,0.3141,0.33111,0.50143,0.44843,0.38483,0.37858,0.51518,0.42373999999999995,0.40293,0.51937,0.60448,0.50508,0.51283,0.47778999999999994,0.5280199999999999,0.48403999999999997,0.38398000000000004,0.37115,0.43796,0.38213,0.3783,0.34149,0.3392,0.40016999999999997,0.41507,0.32693,0.41794,0.44391,0.3944,0.29058,0.41762,0.55875,0.64799,0.8745799999999999,1.1509,1.2206,1.4298,1.6808,1.8716,1.901,1.8325,1.6212,1.6192,1.3914,1.0918,0.9391799999999999,0.619,0.24466999999999997,0.0016870000000000001,-0.06782200000000001,-0.044199,-0.039577,-0.06262000000000001,-0.07312300000000001,-0.029185000000000003,0.010166,0.040926,-0.0014402999999999998,0.066738,0.1021,0.090891,0.17528,0.31506,0.82796,1.5985,1.6495,1.4924,1.5915,1.411,0.7889,0.37851,0.67799,1.2789,0.056673
4,-1.0524,-1.9308,-2.6167,-3.0776,-3.5816,-3.6066,-3.2658,-2.4065,-1.2129,-1.0396,-0.83947,-0.35769,0.018359,-0.069244,-0.021453,0.10385,0.057879999999999994,-0.10827,-0.0483,0.029682,0.029789999999999997,0.056151,-0.034823,0.0033358000000000003,0.11438,0.098826,0.14406,0.0038736999999999995,-0.033551,0.24913000000000002,0.24044000000000001,-0.061640999999999994,0.036825,0.074059,-0.060114999999999995,0.05778200000000001,0.22714,0.21463000000000002,0.15128,0.21151,0.2067,0.20855,0.31026,0.35064,0.30975,0.30654000000000003,0.28436,0.28511,0.27846,0.21761999999999998,0.20279,0.2809,0.34355,0.29117,0.20831,0.056032000000000005,0.22141999999999998,0.12011,-0.03191,0.074316,-0.00061122,0.10647999999999999,0.19303,0.20231,0.065434,0.055085,0.13828,0.12107000000000001,0.020169,0.06308,0.15398,0.033417,0.038114999999999996,0.30071,0.25722,0.35331999999999997,0.4765,0.16022,0.20463,0.39326,0.41861000000000004,0.3262,0.3502,0.39987,0.34363,0.21428000000000003,0.27471,0.45323,0.36880999999999997,0.2846,0.23676999999999998,0.40875,0.57133,0.59605,0.59833,1.0059,1.2063,1.3554,1.5375,1.9089,2.2161,2.1083,2.0712,1.9608,1.8686,1.7765,1.4402,1.1279,0.8464700000000001,0.30658,-0.061371,-0.26295,-0.32271,-0.48951999999999996,-0.34529,-0.40961000000000003,-0.4602,-0.37219,-0.45842,-0.40228,-0.36373,-0.30558,-0.31890999999999997,-0.45514,-0.44211000000000006,-0.44023999999999996,-0.32545999999999997,-0.23995,0.24978000000000003,0.90548,1.391,1.2439,0.69457,-0.24345,-1.2974,-2.1575,-2.4441,-2.2372,-1.3756,-1.3941
4,2.9652,-1.3840000000000001,-3.4358,-4.2058,-3.7060000000000004,-2.5621,-1.0465,-0.46653999999999995,-0.10144,0.8898799999999999,1.1515,1.1267,1.0886,0.87398,1.0921,0.9403,0.91581,0.9451799999999999,1.0055,0.8587899999999999,0.77505,0.63836,0.6543899999999999,0.5512699999999999,0.3663,0.29091,0.2759,0.1667,-0.015553999999999998,-0.059088999999999996,-0.090879,-0.20742,-0.35462,-0.36418,-0.49646999999999997,-0.53235,-0.58729,-0.65113,-0.58894,-0.59338,-0.55315,-0.4305,-0.35883000000000004,-0.17234000000000002,-0.07169,0.041947000000000005,0.22463000000000002,0.31374,0.27702,0.2609,0.36309,0.47851000000000005,0.31335,0.35252,0.37765,0.41484,0.4617,0.45905,0.38858000000000004,0.43786,0.3933,0.37249,0.28559,0.42513,0.4673,0.40765999999999997,0.53875,0.42581,0.57473,0.52686,0.611,0.57493,0.49882,0.6201800000000001,0.43749,0.43157,0.47523000000000004,0.42958,0.35170999999999997,0.32075,0.20299,0.40101,0.19765,0.21404,0.17812999999999998,0.054840999999999994,0.021778,0.057621000000000006,-0.056219000000000005,0.061970000000000004,0.026525,-0.049355,-0.13855,-0.27285,-0.10897000000000001,-0.22325,-0.17793,0.09084400000000001,0.3511,0.71628,0.68666,0.98219,1.1286,1.5451,1.7671,1.6033,1.5072,1.0256,0.85496,0.56213,0.1086,-0.15882000000000002,-0.70395,-0.9904299999999999,-1.2324,-1.256,-1.3206,-1.4901,-1.3256,-1.462,-1.3614,-1.4213,-1.4767,-1.5115,-1.5198,-1.4634,-1.5505,-1.5668,-1.4982,-1.072,-0.24047,-0.017969,0.059905999999999994,0.27326999999999996,0.46497,0.26643,0.3856,0.5578,1.6531,-1.2109
4,-0.4255,-2.2861,-3.2557,-3.9056,-3.9760000000000004,-3.6826,-2.8423,-1.8554,-1.5388,-1.2134,-0.74083,-0.47862,-0.54533,-0.39471,-0.37337,-0.35212,-0.41181999999999996,-0.38545,-0.36484,-0.38844,-0.46738999999999997,-0.45985,-0.44488,-0.41941999999999996,-0.36956999999999995,-0.45187,-0.44809,-0.51179,-0.48578000000000005,-0.45353000000000004,-0.60737,-0.59968,-0.54811,-0.62636,-0.54779,-0.55819,-0.5775,-0.55338,-0.54701,-0.47448,-0.48608,-0.41455,-0.24341999999999997,-0.26989,-0.22091,-0.21439,-0.13583,-0.014665000000000001,-0.088612,-0.028929000000000003,0.0064417,-0.014844,-0.02119,0.014362,-0.029218,0.0070642,-0.0025914,0.041898000000000005,0.12027,0.072175,0.06414700000000001,0.10249000000000001,0.086013,0.15968,0.15847,0.12505,0.14407999999999999,0.2162,0.29982,0.29806,0.38834,0.42882,0.45405,0.5174300000000001,0.50818,0.57499,0.64844,0.61616,0.49296999999999996,0.5788300000000001,0.6019100000000001,0.52771,0.5412,0.57819,0.4905,0.41873,0.39343,0.48765,0.44601999999999997,0.41317,0.44493,0.46967,0.53355,0.58645,0.76178,0.86387,0.9765799999999999,1.0943,1.3815,1.7135,2.0481,2.2095,2.1783,2.0446,1.8145,1.7532,1.4643,1.0871,0.74846,0.34783000000000003,0.10975,-0.16432,-0.15606,-0.17093,-0.2314,-0.1707,-0.20148,-0.24324,-0.24645,-0.28025,-0.23934,-0.22498,-0.24574000000000001,-0.19769,-0.10355,-0.12477,-0.11867,0.15745,0.5857100000000001,0.9826299999999999,1.0437,1.1226,1.1832,0.97191,0.55009,0.51935,0.8609100000000001,1.1643,0.51164,-1.4346
4,-1.1841,-3.1738,-3.8488,-4.1293,-3.841,-3.4664,-2.6648,-1.6677,-1.3491,-1.1759,-0.5605,-0.31843,-0.20085999999999998,-0.3704,-0.3417,-0.33491,-0.31858000000000003,-0.16415,-0.17711,-0.22273,-0.16737,-0.22809000000000001,-0.24999000000000002,-0.35807,-0.35836,-0.27238,-0.3121,-0.34731999999999996,-0.34802,-0.32554,-0.35449,-0.3644,-0.43091999999999997,-0.46671,-0.46721,-0.4736,-0.44869,-0.50048,-0.47036000000000006,-0.37627,-0.38366,-0.33199,-0.2453,-0.22858,-0.20749,-0.13623,-0.06299500000000001,-0.066376,0.013759,0.097802,0.13465,0.15621,0.19191,0.033433,0.05716,0.00091646,0.0044947,-0.064822,-0.12573,-0.011923999999999999,-0.020298,-0.077476,-0.029695999999999997,0.03839,-0.030701999999999997,0.0090295,0.045661,0.10493,0.08984299999999999,0.048794,0.06071699999999999,0.015486000000000002,0.11533,0.16383,0.14953,0.18882000000000002,0.2963,0.34662,0.33791,0.43361000000000005,0.46438999999999997,0.43895,0.43391,0.49533,0.55286,0.43258,0.47723999999999994,0.47485,0.52335,0.49172,0.58338,0.7316199999999999,0.7127600000000001,0.78351,0.94232,1.0937,1.1992,1.3352,1.5953,1.841,1.9233,1.9071,1.9231,1.6801,1.6561,1.4403,1.1136,0.9915,0.6907300000000001,0.28911,-0.025564,-0.20973000000000003,-0.23096999999999998,-0.32665,-0.31966999999999995,-0.22061,-0.23976,-0.31282,-0.25034,-0.27749,-0.31595,-0.36373,-0.22416999999999998,-0.12882000000000002,-0.18923,-0.21106,-0.091265,0.0035528,0.46266,0.82945,0.86685,1.2201,1.2908,1.1823,1.1732,0.9308,0.9061,1.3171,1.0399,-0.78445
4,1.6771,-0.20556,-2.7519,-4.3173,-3.9943,-2.9472,-1.8056,-1.5425,-1.2387,-0.43359,-0.23769,-0.22073,-0.23041999999999999,-0.26750999999999997,-0.24191999999999997,-0.30984,-0.28779,-0.19872,-0.2803,-0.37990999999999997,-0.32679,-0.34646,-0.40968000000000004,-0.55079,-0.54873,-0.7067899999999999,-0.60223,-0.70745,-0.78496,-0.8920899999999999,-0.9533799999999999,-1.0145,-1.0281,-1.1705,-1.1456,-1.1586,-1.2399,-1.1845,-1.1695,-1.1052,-1.0195,-0.8645700000000001,-0.81485,-0.7026899999999999,-0.53291,-0.36838000000000004,-0.28753,-0.21788000000000002,-0.088834,-0.010918,-0.070934,0.020911000000000003,0.032796,0.016339,0.063843,0.13598,0.15403,0.16609000000000002,0.18350999999999998,0.19214,0.2209,0.24964,0.28789000000000003,0.33935,0.29453,0.30364,0.41015,0.5090600000000001,0.516,0.60075,0.5049899999999999,0.52956,0.5855100000000001,0.5088600000000001,0.54515,0.52052,0.59182,0.507,0.55174,0.51159,0.41901000000000005,0.46631999999999996,0.46798,0.52982,0.35720999999999997,0.38111999999999996,0.27505999999999997,0.34579,0.25532,0.17865,0.24750999999999998,0.28863,0.28425,0.29179,0.27806,0.30754000000000004,0.46119,0.66366,0.77195,0.95183,1.1017,1.3439,1.5702,1.7266,1.7127,1.6668,1.5626,1.3814,1.1524,0.8854700000000001,0.5903,0.22810999999999998,-0.039606,-0.28565,-0.35944,-0.32241,-0.31073,-0.45503000000000005,-0.40062,-0.38483,-0.36188000000000003,-0.42982,-0.38738,-0.37448000000000004,-0.43651,-0.44708000000000003,-0.42273,-0.32694,-0.17984,0.24145999999999998,0.75321,0.57739,0.6247199999999999,1.2552,1.8123,2.0207,1.959,1.9243,2.3355,1.4614
4,-1.0012,-3.0404,-4.0513,-4.3277,-3.813,-2.5533,-1.724,-1.3867,-0.5806899999999999,-0.18436,-0.2744,-0.17429,-0.15811,-0.15888,-0.28249,-0.19499,-0.15714,-0.18136,-0.18534,-0.16874,-0.20654,-0.26577,-0.37898000000000004,-0.47222,-0.5586800000000001,-0.54292,-0.50644,-0.53254,-0.48185,-0.67572,-0.71972,-0.76398,-0.80389,-0.87869,-1.0085,-0.88055,-0.82975,-0.8401,-0.79784,-0.6696300000000001,-0.73268,-0.64535,-0.5714100000000001,-0.5513,-0.31766,-0.39025,-0.28231999999999996,-0.17652,-0.23613,-0.22579000000000002,-0.25349,-0.22616,-0.25434,-0.23969000000000001,-0.15232,-0.11065,-0.17482,-0.111,-0.041197000000000004,-0.040991,-0.046196,-0.012613,-0.0079674,0.087962,0.15286,0.20276,0.25897,0.44464,0.3621,0.444,0.57557,0.60127,0.7027899999999999,0.6381600000000001,0.78203,0.74736,0.73985,0.67474,0.60047,0.74955,0.6348600000000001,0.62712,0.5777,0.5545399999999999,0.45478,0.5634,0.63742,0.55547,0.53386,0.44595,0.43821000000000004,0.41041000000000005,0.45347,0.35165,0.45085,0.5846100000000001,0.82105,0.93506,1.0702,1.3315,1.5123,1.6638,2.0553,1.9972,1.9759,1.9302,1.624,1.5205,1.1617,0.85867,0.57531,0.22179000000000001,-0.066669,-0.12978,-0.11980999999999999,-0.17949,-0.27681999999999995,-0.21656,-0.23309000000000002,-0.29420999999999997,-0.25116,-0.24355,-0.31511,-0.19429000000000002,-0.30929,-0.26478,-0.13959000000000002,0.22534,0.93663,1.421,1.1909999999999998,1.1116,1.173,1.0009,0.44856999999999997,0.36366,0.89376,0.9324100000000001,-0.090807,-1.4533
5,-0.34445,-1.4849,-1.9773,-2.5922,-2.5181,-2.5639999999999996,-2.6795,-2.6124,-2.4111,-2.0138,-1.5262,-0.7941699999999999,-0.23155,-0.15695,-0.14304,0.05508300000000001,0.39061,0.64086,0.63434,0.56822,0.5915699999999999,0.6260600000000001,0.60706,0.54785,0.5260100000000001,0.56816,0.50981,0.44523999999999997,0.52659,0.5361600000000001,0.51788,0.51067,0.46799999999999997,0.52461,0.522,0.46058999999999994,0.49333,0.43203,0.33297,0.38897,0.38586,0.34412,0.4497,0.42493000000000003,0.30083000000000004,0.35308,0.35359,0.2411,0.2595,0.30186999999999997,0.25715,0.25340999999999997,0.23355,0.16228,0.1601,0.21818,0.24938000000000002,0.20324,0.187,0.20731,0.16934000000000002,0.15625999999999998,0.11479,0.11575999999999999,0.24153000000000002,0.20465,0.10482999999999999,0.18061,0.1877,0.13685999999999998,0.23156999999999997,0.23819,0.23674,0.36493000000000003,0.33613000000000004,0.37753000000000003,0.47100000000000003,0.35564,0.37674,0.47708,0.46088999999999997,0.47029,0.43864,0.3706,0.40546,0.4504,0.46592,0.54498,0.56203,0.49456999999999995,0.4966,0.53854,0.52295,0.46287,0.45066000000000006,0.49106000000000005,0.49662,0.5141399999999999,0.59775,0.57945,0.49438999999999994,0.55266,0.59331,0.52647,0.53805,0.58697,0.58591,0.5987,0.61268,0.61122,0.63156,0.6293300000000001,0.57245,0.51741,0.4805,0.46628000000000003,0.52575,0.5643199999999999,0.5260699999999999,0.46824,0.3717,0.35762,0.32689,0.30854000000000004,0.63527,0.75917,0.42285,0.15327000000000002,-0.26065,-0.89776,-1.5166,-2.155,-2.9148,-3.6502,-3.6845,-3.3488,-2.5049,-1.2755,-1.1745,0.15200999999999998
5,-0.0263,-0.7075899999999999,-1.1602,-1.9939,-2.4807,-2.66,-2.7308,-2.5505,-2.1931,-1.6878,-1.0884,-0.66013,-0.5524,-0.57419,-0.47235,-0.14543,0.25598000000000004,0.46198,0.47534,0.42866000000000004,0.37559000000000003,0.38783,0.42651999999999995,0.35994,0.34571,0.47286000000000006,0.43438000000000004,0.32514,0.42589,0.48535,0.45083999999999996,0.48101000000000005,0.46918999999999994,0.46921,0.5547300000000001,0.5457,0.42404,0.38684,0.45913000000000004,0.43968999999999997,0.32695,0.31806,0.38538,0.37425,0.31981,0.29019,0.24973,0.21731999999999999,0.21066999999999997,0.16471,0.12674000000000002,0.14753,0.14384,0.12122999999999999,0.1301,0.1152,0.06502100000000001,0.025034,-0.0073295,-0.025381,-0.019994,-0.036787,-0.071703,-0.072268,-0.066072,-0.067781,-0.047116000000000005,-0.038993,-0.07515,-0.086798,-0.0263,0.047625,0.07824600000000001,0.08653,0.083915,0.10346,0.18441,0.25027,0.27852,0.34342,0.39495,0.42253,0.47273999999999994,0.55662,0.6756800000000001,0.69198,0.6511899999999999,0.7331300000000001,0.76127,0.72283,0.79568,0.80953,0.7417600000000001,0.8013600000000001,0.8938299999999999,0.8746200000000001,0.8569399999999999,0.9013200000000001,0.9081600000000001,0.8669899999999999,0.8583200000000001,0.90002,0.9557399999999999,0.95541,0.9079999999999999,0.9637,1.0719,1.0258,0.9538399999999999,0.96373,0.94626,0.9593799999999999,0.94479,0.7609100000000001,0.60406,0.6087600000000001,0.63648,0.61643,0.57799,0.50095,0.39416,0.28195,0.12836,-0.033303,-0.12037,-0.11565,-0.16638,-0.44073999999999997,-0.76303,-1.0997,-1.6931,-2.2554,-2.6029,-2.9351,-3.2202,-3.4209,-3.1249,-2.2665,-1.2815,0.28553
5,0.53213,-0.48396000000000006,-1.3696,-1.8309,-2.188,-2.5143,-2.7139,-2.4975,-1.9509,-1.4503,-1.0347,-0.86851,-0.75492,-0.59751,-0.10842,0.26796,0.25902,0.30133000000000004,0.33504,0.28674,0.26778,0.25459,0.30233000000000004,0.27665,0.2669,0.29830999999999996,0.30477,0.33771999999999996,0.25456,0.31081,0.34915999999999997,0.27213000000000004,0.2285,0.27616,0.30125,0.24633000000000002,0.2408,0.26331,0.28558,0.293,0.22241,0.21495999999999998,0.1905,0.08492899999999999,0.15866,0.13388,0.056053,0.098906,0.089027,0.049468,0.07522899999999999,0.009360799999999999,0.05322,-0.0031044,-0.11942,0.022783,-0.08706799999999999,-0.067811,-0.1187,-0.11499000000000001,-0.13660999999999998,-0.11137000000000001,-0.013144,0.005429,-0.016600999999999998,0.0013918,0.079916,0.087975,0.16501,0.23481999999999997,0.1905,0.16477999999999998,0.29512,0.37428,0.31306999999999996,0.39066999999999996,0.43665,0.43028999999999995,0.46255,0.51849,0.5508,0.50488,0.51132,0.46412,0.48943000000000003,0.61101,0.6592100000000001,0.62284,0.5263,0.60811,0.64051,0.6683899999999999,0.64876,0.61266,0.7682399999999999,0.7471899999999999,0.70614,0.74748,0.7243,0.75865,0.8522700000000001,0.78687,0.77717,0.8742,0.8353,0.80075,0.7750100000000001,0.82335,0.8786799999999999,0.91581,0.97775,0.89135,0.9378200000000001,0.9413600000000001,0.94896,0.99205,0.90551,0.82115,0.7272,0.64461,0.62042,0.73707,0.65233,0.34906,0.18679,0.010573,-0.044364999999999995,-0.049568,0.031105,-0.22416999999999998,-0.63705,-1.1705,-1.8928,-2.4615,-3.3252,-4.0185,-4.1495,-3.1534,-2.1906,-1.0187
4,0.50249,-1.6048,-2.9644,-3.804,-3.823,-2.9688,-1.9803,-1.7125,-1.2343,-0.57897,-0.49383,-0.41168000000000005,-0.49538000000000004,-0.54235,-0.53337,-0.48505,-0.54572,-0.54562,-0.53275,-0.59988,-0.53985,-0.54333,-0.5715100000000001,-0.6664,-0.6845600000000001,-0.74075,-0.72787,-0.78881,-0.7579100000000001,-0.80782,-0.8700899999999999,-0.8912100000000001,-0.93317,-0.9859100000000001,-1.0288,-1.0197,-1.1194,-1.0603,-1.1039,-1.1113,-1.1366,-1.1186,-1.0629,-1.0064,-0.94776,-0.8638,-0.7771899999999999,-0.69948,-0.62463,-0.4888,-0.3676,-0.32514,-0.21664,-0.16716,-0.13101,-0.038266,0.037091000000000006,-0.0016117,0.038860000000000006,0.18205,0.078515,0.17712,0.29301,0.3267,0.34833000000000003,0.40125,0.42938000000000004,0.49353,0.58904,0.66403,0.6935899999999999,0.73136,0.75608,0.81617,0.80235,0.85572,0.8337200000000001,0.8322200000000001,0.8497299999999999,0.81426,0.8282700000000001,0.8291299999999999,0.84203,0.78589,0.66672,0.6894100000000001,0.7256600000000001,0.60569,0.71597,0.56635,0.54447,0.59626,0.50471,0.49495,0.49806000000000006,0.5358,0.51435,0.55917,0.54994,0.74047,0.8910899999999999,0.9941,1.1499,1.4316,1.6332,1.8566,2.0045,1.8774,1.6163,1.5414,1.3044,0.92699,0.50546,0.21279,0.00059346,-0.070302,-0.024738999999999997,-0.064014,-0.094838,-0.074663,8.017e-05,-0.052868,-0.07088,-0.056244,-0.04023,-0.00018738,0.049843,0.0022589000000000003,0.043017,0.42668,0.99,0.9920899999999999,0.8545200000000001,1.0362,0.9887799999999999,1.0558,1.0655,1.3678,1.4611,-0.28813
4,-0.15850999999999998,-3.1339,-3.5508,-3.9639,-3.6379,-3.0453,-1.6566,-0.85734,-0.6542399999999999,-0.042189,0.67172,0.70072,0.88102,0.7946,0.6956899999999999,0.8333799999999999,0.70418,0.58935,0.62012,0.70457,0.6051,0.51342,0.5110399999999999,0.39921,0.42038000000000003,0.35402,0.24736,0.1901,0.19202,0.0084578,-0.041024,0.099498,-0.06564199999999999,-0.14223,-0.11299000000000001,-0.18411,-0.20958000000000002,-0.14063,-0.09032000000000001,-0.050658,-0.08540700000000001,-0.044123,-0.043220999999999996,-0.0095646,0.13304000000000002,0.14113,0.090389,0.24577,0.34464,0.14153,0.23046,0.19496,0.32703000000000004,0.2665,0.1552,0.13597,0.20761999999999997,0.12285,0.099745,0.14517,0.16888,0.19782,0.15598,0.098315,0.076723,0.15787,0.16184,0.28742,0.29873,0.36006,0.48508,0.4213,0.3447,0.41428999999999994,0.45391000000000004,0.45912,0.35391999999999996,0.44232,0.44431000000000004,0.4352,0.35963,0.35559,0.37406,0.29004,0.27633,0.25208,0.19342,0.1454,0.085095,0.095536,0.085867,0.13992000000000002,0.13903,0.10205,0.39835,0.5364800000000001,0.65969,0.76158,1.1446,1.6102,1.9852,2.3493,2.2875,2.3584,1.8315,1.6685,1.3366,0.7248,0.28938,-0.32282,-0.67348,-0.8643200000000001,-1.0113,-0.9867600000000001,-1.0502,-1.1022,-1.1264,-1.2177,-1.2047,-1.1457,-1.2302,-1.3143,-1.2469,-1.3378,-1.2969,-1.0994,-1.1893,-1.091,-0.76156,-0.10639000000000001,0.17784,0.284,0.79094,0.72197,0.33623000000000003,-0.13594,-0.21756999999999999,0.13894,0.47556000000000004,-2.0444
5,-0.31701,-1.6371,-2.5177,-2.9829,-2.8823,-2.9123,-2.7022,-2.2925,-1.7568,-1.1248,-0.7955899999999999,-0.66347,-0.6227199999999999,-0.46062,0.010971999999999999,0.36136,0.49959,0.40157,0.32450999999999997,0.38656,0.42605,0.45903999999999995,0.43249,0.37653000000000003,0.35546,0.34565999999999997,0.37022,0.40610999999999997,0.43956000000000006,0.38363,0.3247,0.42567,0.38353000000000004,0.34567,0.33065,0.29318,0.38095,0.35229,0.28972,0.31306999999999996,0.34981,0.28293,0.2178,0.25478,0.26678,0.28528000000000003,0.25863,0.13894,0.15547,0.21364,0.14115999999999998,0.10044,0.12,0.11168,0.052860000000000004,0.055345000000000005,0.13560999999999998,0.090287,-0.012093000000000001,-0.0045816,0.015650999999999998,0.0223,-0.0056578,-0.039166,-0.083731,-0.072825,0.019816,0.020372,-0.00028730000000000004,-0.0096683,0.025426,0.080624,0.14075,0.1844,0.18191,0.23903000000000002,0.2342,0.25963,0.3957,0.43346,0.43901999999999997,0.45406,0.43104,0.48196000000000006,0.51613,0.58011,0.58727,0.56628,0.62205,0.58144,0.63743,0.69587,0.67173,0.6998300000000001,0.70349,0.7328600000000001,0.76773,0.69696,0.69489,0.76586,0.7084,0.73334,0.7858,0.74634,0.81999,0.8496299999999999,0.86845,0.85739,0.8653799999999999,0.8539200000000001,0.76574,0.86167,0.9203899999999999,0.8847,0.8447,0.7854399999999999,0.76164,0.68863,0.5602199999999999,0.51384,0.56396,0.5754199999999999,0.42462,0.27252,0.20798000000000003,0.0069866,-0.063538,0.1563,0.12011,-0.052829999999999995,-0.27337,-0.84206,-1.4798,-2.1285,-2.8809,-3.5546,-3.9552,-3.0959,-2.2649,-0.74544
4,-0.7577699999999999,-2.4562,-3.0005,-3.8505,-4.1974,-3.7039,-2.7014,-1.8704,-1.6046,-0.8261700000000001,-0.39976,-0.4403,-0.38573,-0.44961999999999996,-0.42754,-0.42361000000000004,-0.4284,-0.435,-0.42601999999999995,-0.38615,-0.49646,-0.69519,-0.51174,-0.5955600000000001,-0.47898999999999997,-0.41297,-0.37746999999999997,-0.43693000000000004,-0.61466,-0.4597,-0.52627,-0.68547,-0.32218,-0.37294,-0.38423,-0.35061,-0.35669,-0.24466,-0.29889,-0.30096999999999996,-0.30559000000000003,-0.40893,-0.44643999999999995,-0.39016999999999996,-0.10056,-0.13087000000000001,-0.1914,-0.094027,-0.09816799999999999,-0.044055000000000004,0.019456,0.038974,-0.020638,-0.032651,0.0032204,0.029060000000000002,0.050769,0.007923699999999999,0.016697,-0.05714400000000001,-0.007408700000000001,0.093339,-0.053035,0.0024384,0.19017,0.22438000000000002,0.18679,0.19793,0.15853,0.18225,0.19618,0.20618000000000003,0.32054,0.37213,0.49207,0.47478000000000004,0.42573999999999995,0.61678,0.77158,0.7791,0.65933,0.62943,0.56987,0.6814899999999999,0.68725,0.7058,0.6671600000000001,0.50203,0.6087,0.60851,0.50689,0.47173999999999994,0.38004,0.42291000000000006,0.5080100000000001,0.6107600000000001,0.69758,0.8977,0.9723799999999999,1.1497,1.6546,1.9161,2.1016,2.2387,2.1959,1.9221,1.8444,1.6369999999999998,1.2102,0.9716600000000001,0.56087,0.1973,-0.10138,-0.08701,0.035901,0.053588,0.070131,-0.083023,-0.060976999999999996,0.065914,0.074183,-0.15683,-0.19034,-0.04098,0.052256,0.13845,-0.11045,0.14409,0.96014,1.6181,1.5154,1.189,0.87485,0.3475,-0.12237999999999999,-0.62553,-0.5000899999999999,-0.30173,-0.21156,-1.5174
4,0.7297399999999999,-1.3902,-2.8,-3.8337,-4.4007,-3.6043,-2.3868,-1.995,-1.2395,-0.33578,-0.45275,-0.30819,-0.32172,-0.32502,-0.33688,-0.27491,-0.35024,-0.39255,-0.38099,-0.4168,-0.40093,-0.38689,-0.5139,-0.6988,-0.6355,-0.66122,-0.71844,-0.64055,-0.79322,-0.93137,-0.89212,-0.9759700000000001,-1.0355,-1.0212,-1.1137,-1.1542,-1.1068,-0.9018799999999999,-0.96624,-0.76837,-0.60722,-0.63484,-0.53722,-0.38016,-0.12175,-0.20205,-0.20685,-0.16022999999999998,-0.0024931,0.07356499999999999,-0.058304999999999996,0.076411,0.053117,0.078154,0.21078000000000002,0.1295,0.036106,0.1567,0.19408,0.21811,0.22165,0.39676999999999996,0.3954,0.5021100000000001,0.53923,0.6541899999999999,0.5695100000000001,0.73133,0.62015,0.7307100000000001,0.83024,0.71199,0.72019,0.72226,0.72307,0.6918300000000001,0.7219800000000001,0.65232,0.6311,0.54682,0.54547,0.55476,0.53161,0.57516,0.4702,0.39837,0.41092,0.31978,0.30831,0.27753,0.30023,0.33884000000000003,0.30844,0.33664,0.29541,0.37623,0.29231,0.22411,0.27325,0.38525,0.32339,0.22553,0.61353,1.0618,1.249,1.4465,1.4812,1.8206,2.228,2.1633,2.0615,1.8801,1.7419,1.4003,0.83929,0.21164000000000002,-0.24522,-0.23544,-0.33892,-0.3648,-0.37784,-0.46817,-0.33816,-0.31043000000000004,-0.30535999999999996,-0.28731999999999996,-0.16644,-0.14862999999999998,-0.21181,-0.16066,-0.16177,-0.054657000000000004,0.45301,1.1739,1.0489,1.3543,1.2665,0.79214,-0.037357999999999995,0.35863
4,-1.4604,-2.8044,-3.2189,-3.8318,-3.9349,-3.6310000000000002,-2.8007,-1.6979,-1.2842,-1.0018,-0.34852,-0.10274000000000001,-0.25982,-0.42348,-0.39195,-0.21996999999999997,-0.19847,-0.24345,-0.27951,-0.37388000000000005,-0.2994,-0.35815,-0.3673,-0.37506,-0.48163,-0.39457,-0.33573000000000003,-0.27881,-0.20035999999999998,-0.26441,-0.32911,-0.34986999999999996,-0.37471,-0.27867,-0.3184,-0.3261,-0.32297,-0.3126,-0.28526,-0.3005,-0.2886,-0.25544,-0.11615999999999999,0.03815,-0.007975399999999999,0.13392,0.06605599999999999,0.18039000000000002,0.17677,0.10753,0.25345,0.17384000000000002,0.18899000000000002,0.11243,0.11505,0.21611999999999998,0.024214,-0.15857000000000002,0.071921,0.10367,0.060438,0.039816000000000004,0.095524,0.010518000000000001,0.025769999999999998,0.078699,0.023552,0.041931,0.17586,0.1988,0.30476,0.3188,0.32782,0.37051,0.42581,0.4237,0.56395,0.60319,0.5383899999999999,0.6232,0.60629,0.6028,0.51867,0.6474,0.64267,0.65747,0.59585,0.5877,0.55435,0.5875,0.49754,0.33209,0.42872,0.4617,0.58306,0.7416,0.93434,1.0251,1.1053,1.2751,1.6439,1.9414,2.0842,1.9943,1.7789,1.6008,1.5477,1.3848,1.071,0.79483,0.61354,0.088293,-0.095231,-0.2286,-0.28999,-0.24581,-0.25963,-0.23854,-0.28449,-0.33252,-0.41675,-0.41152,-0.3312,-0.25823,-0.035769999999999996,-0.11757999999999999,-0.19822,-0.22149000000000002,0.031592,0.81326,1.6449,1.6732,1.3993,1.4098,0.90261,0.012522,-0.94442,-1.6375,-1.2714,-1.3227
5,0.9061299999999999,1.1733,1.1353,0.5231399999999999,0.07712000000000001,-0.44073,-0.72356,-0.8967799999999999,-1.1702,-1.3329,-1.3525,-1.1926,-0.87125,-0.56675,-0.32706,-0.2565,-0.26904,-0.030201,0.28862,0.47281000000000006,0.53345,0.48181,0.4513,0.49512,0.51286,0.47073000000000004,0.45368,0.43549,0.43505,0.53698,0.54173,0.45127,0.45558999999999994,0.47243,0.47016,0.47041000000000005,0.43996999999999997,0.41535,0.41591000000000006,0.45423,0.49433999999999995,0.43578999999999996,0.43186,0.50778,0.44114,0.37431,0.38636,0.31488,0.29514,0.34524,0.31081,0.34678000000000003,0.38231,0.33666,0.29231,0.23358,0.28864,0.28485,0.20505,0.2185,0.21648,0.25644,0.25777,0.17328,0.19004000000000001,0.22005,0.17318,0.1661,0.1472,0.10593,0.14479,0.18284,0.15564,0.097973,0.10342,0.1471,0.14531,0.1602,0.15183,0.11809000000000001,0.1335,0.17868,0.21597,0.21386,0.24074,0.30594,0.3262,0.32479,0.35481999999999997,0.41911000000000004,0.43201999999999996,0.41756000000000004,0.43345,0.4651,0.54835,0.54092,0.48826,0.54259,0.5636800000000001,0.5783,0.61227,0.58757,0.56142,0.5755600000000001,0.59965,0.5934,0.60942,0.61417,0.61358,0.66605,0.65808,0.66992,0.68114,0.59687,0.6038399999999999,0.6481399999999999,0.59219,0.46023000000000003,0.33524,0.29189,0.30378,0.28479,0.079111,-0.08695,-0.15765,-0.37353000000000003,-0.57163,-0.83455,-1.0232,-1.0773,-1.4349,-1.8498,-2.1104,-2.7904,-3.2549,-3.6024,-4.1692,-4.1103,-4.675,-2.6197
4,-0.042894,-1.8687,-3.3334,-4.5802,-4.1651,-3.1719999999999997,-2.1456,-1.8002,-1.3780000000000001,-0.61519,-0.41036000000000006,-0.45177,-0.48395,-0.4679,-0.33604,-0.40175,-0.32065,-0.4643,-0.4056,-0.39375,-0.44373,-0.47947,-0.60665,-0.5554899999999999,-0.65166,-0.61428,-0.63626,-0.62893,-0.67773,-0.69858,-0.7663399999999999,-0.85519,-0.91935,-0.92289,-0.9794700000000001,-0.96162,-0.97259,-0.92286,-0.94429,-0.84099,-0.78392,-0.77405,-0.6342399999999999,-0.53458,-0.36695,-0.35751,-0.27436,-0.19341,-0.262,-0.15525999999999998,-0.14192000000000002,-0.12635,-0.070379,-0.058761,-0.027958999999999998,-0.007003699999999999,-0.032955,0.093039,0.06034400000000001,0.09930599999999999,0.098125,0.092138,0.15669,0.21025,0.29061,0.28412,0.35903,0.38543,0.49178999999999995,0.5688,0.58481,0.6526,0.5501699999999999,0.67733,0.71936,0.7801100000000001,0.67386,0.70491,0.69924,0.64715,0.70434,0.6016,0.63181,0.58637,0.48111000000000004,0.56642,0.56443,0.51347,0.41888000000000003,0.43286,0.51241,0.43668,0.42471000000000003,0.4482,0.45601,0.47129,0.51294,0.71418,1.0008,1.0694,1.1202,1.2362,1.4941,1.5655,1.6469999999999998,1.5219,1.4813,1.2384,1.119,0.9274700000000001,0.7427,0.61163,0.3623,0.027035000000000003,-0.035754,-0.14232999999999998,-0.19115,-0.14739000000000002,-0.14309000000000002,-0.17501,-0.2298,-0.1531,-0.20319,-0.13984000000000002,-0.1085,-0.21481,-0.14648,-0.19563,0.11637,0.27817,0.77236,1.0744,1.1961,1.5501,1.6744,1.6361,1.2512,1.1964,1.6637,0.41213
5,0.19266,-0.37346999999999997,-0.36754000000000003,-0.23669,-0.3179,-0.75455,-1.3321,-1.7557,-1.7074,-1.1937,-0.58375,-0.14203,0.0085794,0.07080800000000001,0.19266,0.21223000000000003,0.2257,0.36796999999999996,0.50668,0.50805,0.40671999999999997,0.29304,0.16608,0.22357,0.48085,0.537,0.49326000000000003,0.6411899999999999,0.7721399999999999,0.74139,0.68779,0.62008,0.4391,0.32535,0.46856000000000003,0.59308,0.45343999999999995,0.2972,0.31624,0.37831,0.43668999999999997,0.48436999999999997,0.47623999999999994,0.49505,0.57208,0.59925,0.49668,0.27559,0.1315,0.31151,0.65441,0.7679699999999999,0.55153,0.21036,0.071883,0.26050999999999996,0.63652,0.8277200000000001,0.57935,0.28128000000000003,0.22321,0.38818,0.68828,0.6590699999999999,0.30949,0.1284,0.2584,0.48738000000000004,0.46087,0.36227,0.52556,0.5998100000000001,0.42052,0.34623000000000004,0.36391,0.32866999999999996,0.38544,0.40913,0.25598000000000004,0.24051999999999998,0.43073999999999996,0.5774199999999999,0.66494,0.59517,0.40226,0.36530999999999997,0.42072,0.56503,0.8257200000000001,0.80992,0.40521,0.11489,0.29486,0.64858,0.6995100000000001,0.56514,0.65573,0.69525,0.35294000000000003,0.11059000000000001,0.2359,0.33859,0.31285,0.35704,0.47328000000000003,0.6272300000000001,0.70691,0.5809,0.35822,0.31945999999999997,0.52203,0.51008,0.36527,0.62495,0.8372200000000001,0.46126999999999996,-0.14832,-0.30685999999999997,0.058559,0.28242,0.24009,0.086918,-0.15928,-0.39515,-0.8526299999999999,-1.3259999999999998,-1.5581,-1.6715,-1.4299,-1.3348,-2.1532,-3.1301,-3.4216,-3.4504,-3.5378,-3.7736,-3.6291,-2.8445,-2.3295,-0.86331
5,-0.8894299999999999,-2.0874,-2.7141,-3.293,-3.2656,-3.1484,-2.7969999999999997,-2.327,-1.4382,-0.82511,-0.7053699999999999,-0.43953000000000003,-0.017248,0.27460999999999997,0.3702,0.32086,0.27891,0.33708,0.39253000000000005,0.36832,0.39054,0.36151,0.36372,0.40029000000000003,0.33873000000000003,0.37544,0.37803000000000003,0.3844,0.39955,0.29255,0.32902,0.36717,0.34926,0.28267,0.30115,0.24444000000000002,0.17895999999999998,0.23924,0.27543,0.25977,0.14142000000000002,0.23876,0.23041999999999999,0.073158,0.18838,0.16238,0.14690999999999999,0.12491,0.1648,0.15556,0.18166,0.28005,0.1815,0.29209,0.26707,0.25758000000000003,0.41155,0.38082,0.43133,0.461,0.44815,0.38875,0.45682,0.52013,0.54309,0.5293100000000001,0.51545,0.5364300000000001,0.47417,0.45821999999999996,0.45447,0.50957,0.41645,0.39807,0.40299999999999997,0.31156,0.41003,0.2997,0.38853000000000004,0.28883000000000003,0.32588,0.36441,0.30235,0.32402,0.41336999999999996,0.47791000000000006,0.42728,0.41535,0.40638,0.42913,0.49021000000000003,0.5586399999999999,0.58273,0.52178,0.58599,0.5857399999999999,0.64674,0.6502899999999999,0.7209899999999999,0.70701,0.6221899999999999,0.70936,0.7055100000000001,0.7104699999999999,0.66928,0.61236,0.65875,0.62993,0.65545,0.61026,0.54545,0.54308,0.57621,0.59335,0.48901000000000006,0.49003,0.34308,0.23165,0.1714,0.14998,0.25322,0.23504,0.22516,0.12090999999999999,0.19372999999999999,0.15241,0.13088,0.33181,0.25226,0.0449,-0.22196,-0.79899,-1.1968,-1.6285,-2.71,-3.3905,-3.9946,-3.2618,-2.4416,-1.3777
5,0.07531900000000001,-1.0561,-1.8675,-3.3878,-3.5655,-3.7112,-3.083,-2.391,-1.7968,-1.3653,-1.2476,-1.0056,-0.5204300000000001,-0.292,-0.046768000000000004,-0.050303,-0.12195999999999999,-0.085577,-0.14614000000000002,-0.09489,-0.098504,-0.11477000000000001,-0.055633,-0.022024000000000002,-0.09763200000000001,-0.10759,-0.076241,-0.11157,-0.091897,-0.07571,-0.15412,-0.17535,-0.13713,-0.11721,-0.10839000000000001,-0.17488,-0.21723,-0.14723,-0.16358,-0.2887,-0.2836,-0.21470999999999998,-0.27505999999999997,-0.33123,-0.34545,-0.4376,-0.46228,-0.34831999999999996,-0.34513,-0.43278,-0.48925,-0.41555,-0.29607,-0.36033000000000004,-0.41673999999999994,-0.37727,-0.33399999999999996,-0.33319,-0.34843,-0.22178,-0.22858,-0.24198000000000003,-0.16632,-0.11667999999999999,0.016034,-0.029197000000000004,0.036248,0.13572,0.17908,0.26791,0.31109000000000003,0.32121,0.35052,0.38633,0.39968000000000004,0.39686,0.39619,0.46475,0.56593,0.55302,0.58405,0.63165,0.6540100000000001,0.71317,0.6579699999999999,0.61369,0.65418,0.72936,0.85915,0.82315,0.73335,0.78547,0.8144100000000001,0.85688,0.9253299999999999,0.87695,0.87666,0.9950700000000001,0.94942,0.8710600000000001,1.03,1.0396,0.99577,1.0835,1.0738,1.1041,1.147,1.1023,1.1840000000000002,1.2619,1.1888,1.2694,1.3072,1.3112,1.3123,1.308,1.2635,1.0029,0.9121,0.93419,0.8789,0.81655,0.66935,0.56005,0.48293,0.40676999999999996,0.52123,0.60832,0.3483,-0.084333,-0.52809,-1.0802,-1.5267,-1.7034,-2.2466,-2.3514,-2.4264,-1.1367,-0.40026,1.1217
4,-1.168,-3.9026,-4.4766,-4.6837,-4.0703,-3.1791,-1.7787,-1.36,-0.85001,-0.15211,-0.09395099999999999,-0.098416,-0.050598000000000004,-0.085574,-0.088612,0.009226999999999999,0.018147999999999997,-0.10767,-0.07984400000000001,-0.21574000000000002,-0.076065,-0.024904,-0.12495999999999999,-0.098826,-0.23335,-0.29679,-0.31251999999999996,-0.47497,-0.37159000000000003,-0.44493,-0.5856399999999999,-0.54595,-0.5009600000000001,-0.46082,-0.50768,-0.45278,-0.50762,-0.51832,-0.5556300000000001,-0.53715,-0.39395,-0.27964,-0.17381,-0.15097,-0.2092,-0.038674,0.07508300000000001,0.021676,0.057835000000000004,0.12117,0.14022,0.23718000000000003,0.16264,0.2204,0.016922,0.10212,0.048537000000000004,0.08239400000000001,0.045397,0.22158000000000003,0.24184,0.14818,0.20103,0.17623,0.19008,0.32608000000000004,0.17709,0.3325,0.40755,0.2892,0.47368999999999994,0.38882,0.4252,0.42468999999999996,0.5442,0.5382,0.42236,0.38695,0.49413,0.3109,0.44273999999999997,0.29751,0.28758,0.42458,0.28098,0.32168,0.2554,0.34645,0.28893,0.20399,0.21497,0.15234,0.32978,0.21689,0.30812,0.44098000000000004,0.6221800000000001,0.69434,0.8780100000000001,1.1951,1.3237,1.4993,1.6278,1.8628,1.8132,1.7830000000000001,1.6217,1.3224,1.1409,0.8582200000000001,0.64844,0.29278000000000004,-0.10174,-0.3795,-0.5362,-0.46518999999999994,-0.5039100000000001,-0.42713999999999996,-0.5071899999999999,-0.46966,-0.44246,-0.44491,-0.34962,-0.36666,-0.48955,-0.34371,-0.32754,-0.29258,-0.1487,-0.0030556,0.3409,0.6174,0.8063600000000001,1.2794,1.3697,1.2926,1.1805,0.6946399999999999,1.2822,0.57834
5,-0.3366,-1.4422,-1.9836,-2.9078,-3.3826,-3.4319,-3.1955,-2.7056,-2.2537,-1.8159,-1.2993,-0.92075,-0.78493,-0.71111,-0.42057,0.10257999999999999,0.38213,0.37822,0.38240999999999997,0.33683,0.28167,0.30913,0.31305,0.34889000000000003,0.43355,0.37238000000000004,0.27921,0.36246,0.40533,0.29658,0.28267,0.3433,0.33845,0.324,0.29485,0.30044,0.3115,0.2518,0.26563000000000003,0.29891999999999996,0.28962,0.27260999999999996,0.19444,0.18074,0.19637000000000002,0.17376,0.19855,0.15128,0.09027400000000001,0.14024,0.1348,0.039494,0.00038499,0.019438,0.010154999999999999,-0.0089297,-0.017296000000000002,-0.05803099999999999,-0.11225,-0.1278,-0.12297000000000001,-0.1377,-0.15225,-0.15015,-0.13179000000000002,-0.11890999999999999,-0.12796,-0.057689,0.011903,-0.017700999999999998,0.047496,0.11962,0.15672,0.25751999999999997,0.25179,0.27047,0.31166,0.26566999999999996,0.38605,0.52976,0.5043,0.50197,0.5582199999999999,0.6098899999999999,0.6641199999999999,0.65189,0.6348600000000001,0.7250800000000001,0.77315,0.7397199999999999,0.70414,0.6978,0.78376,0.83149,0.75678,0.7287899999999999,0.76872,0.79397,0.8457100000000001,0.84062,0.79513,0.86705,0.88376,0.8455600000000001,0.89065,0.9119700000000001,0.93014,0.88913,0.8481700000000001,0.89207,0.8746799999999999,0.9661200000000001,1.0572,0.94245,0.835,0.70458,0.6282300000000001,0.6642899999999999,0.66163,0.67518,0.6059899999999999,0.47208,0.42933999999999994,0.3526,0.25017,0.27086,0.36987,0.34051,0.073257,-0.28486,-0.72668,-1.2592,-1.7605,-2.2915,-2.7819,-3.1479,-2.8682,-1.9279,-1.1529,0.39552
5,0.54566,0.46148,0.36269,-0.12525,-0.4449,-0.72773,-0.98956,-1.3197,-1.6236,-1.6607,-1.5579,-1.2664,-0.84204,-0.54482,-0.4027,-0.34026,-0.26056,-0.030244,0.26188,0.43606999999999996,0.48601000000000005,0.41775,0.3407,0.39174000000000003,0.45493,0.45725,0.44155,0.44543999999999995,0.46321,0.43398000000000003,0.41353999999999996,0.41703999999999997,0.43941,0.48396000000000006,0.42058999999999996,0.35186,0.41947,0.48449,0.48081999999999997,0.43528,0.4006,0.42753,0.42368,0.37175,0.3871,0.41603999999999997,0.41122,0.45056999999999997,0.44448999999999994,0.39845,0.4274,0.42296999999999996,0.37367,0.38558000000000003,0.43248000000000003,0.43728,0.41768999999999995,0.45679,0.46808999999999995,0.40576,0.39544,0.39599,0.34084000000000003,0.36286,0.40785,0.36696,0.40598,0.3998,0.30246999999999996,0.3531,0.36109,0.33447,0.40615,0.41789,0.42838000000000004,0.41072,0.35117,0.37054000000000004,0.37982,0.37078,0.40326999999999996,0.44897,0.49636,0.5049600000000001,0.47184,0.48246999999999995,0.51654,0.4983,0.48268999999999995,0.4945,0.52081,0.56814,0.58755,0.5983,0.62322,0.61888,0.59536,0.58808,0.62532,0.69634,0.7015899999999999,0.62668,0.60344,0.61978,0.60396,0.6110300000000001,0.63029,0.63563,0.64847,0.65008,0.6252,0.57375,0.49563999999999997,0.40394,0.35446,0.41181999999999996,0.50788,0.4753,0.30451,0.13865999999999998,-0.024741,-0.30178,-0.60368,-0.74585,-0.8281799999999999,-1.0432,-1.3033,-1.6092,-2.1144,-2.623,-3.0723,-3.5607,-4.0064,-4.2126,-3.7436,-2.9141,-1.9204,-0.8752,-0.60314,0.12965
4,-1.5827,-3.6506,-4.537,-4.659,-4.0765,-3.196,-1.9003,-1.2962,-0.9999,-0.27681,0.18057,0.21477,0.22845,0.10987000000000001,0.138,0.19857,0.15134,0.1367,0.18359,0.13923,0.13415,0.02274,0.029587000000000002,0.058713999999999995,-0.0050472,-0.095902,-0.20007,-0.2115,-0.21436999999999998,-0.38946,-0.35849000000000003,-0.40131999999999995,-0.49753000000000003,-0.48367,-0.46206,-0.53674,-0.50634,-0.49046000000000006,-0.4216,-0.46038999999999997,-0.37882,-0.28029,-0.24919000000000002,-0.212,-0.059334000000000005,0.036916000000000004,0.08091799999999999,0.16058,0.10323,0.22057,0.24733000000000002,0.21645999999999999,0.2266,0.22493000000000002,0.20015,0.23906999999999998,0.29359,0.23295,0.21355,0.28515,0.29929,0.24552,0.2892,0.26727,0.34613,0.41102,0.319,0.38098000000000004,0.38806,0.43341,0.53557,0.54328,0.5350600000000001,0.67178,0.64517,0.6693399999999999,0.65185,0.65376,0.65972,0.6022,0.50011,0.50868,0.49978,0.47758,0.425,0.42645,0.40474,0.42062,0.33599,0.35931,0.3523,0.36284,0.54272,0.68779,0.8752700000000001,0.93271,0.96073,1.1226,1.3507,1.5230000000000001,1.7274,1.6727,1.6889,1.6059999999999999,1.3869999999999998,1.2826,1.0696,0.87661,0.5603100000000001,0.13517,-0.20379,-0.41423999999999994,-0.59418,-0.67103,-0.66514,-0.67582,-0.6087600000000001,-0.6309100000000001,-0.6609,-0.72849,-0.71823,-0.59136,-0.64759,-0.71544,-0.65627,-0.6694899999999999,-0.66735,-0.48136,-0.18645,0.34686999999999996,0.67692,0.55752,0.69412,0.57929,0.59691,0.36669,0.38899,0.59629,0.74659,-0.8048
5,1.0723,0.036976999999999996,-1.4393,-2.2352,-2.9443,-3.0106,-2.8099,-2.7036,-2.4054,-1.9076,-1.2656,-0.8386899999999999,-0.8054899999999999,-0.60063,-0.24433000000000002,0.06631000000000001,0.27729000000000004,0.32156999999999997,0.35896999999999996,0.34926,0.34262,0.38387,0.40479,0.33177,0.25146999999999997,0.32011,0.32573,0.30226,0.41193,0.44593999999999995,0.35831999999999997,0.24885,0.1659,0.19994,0.31311,0.2536,0.17275,0.29,0.21786999999999998,0.11477000000000001,0.20067000000000002,0.16951,0.18606,0.25490999999999997,0.17752,0.15464,0.18742999999999999,0.10928,0.070535,0.10955999999999999,0.069711,-0.0013749,-0.028172000000000003,-0.046165,-0.053070000000000006,-0.032611,-0.030792,-0.055338,-0.06985,-0.053582000000000005,-0.0029574000000000002,0.046577999999999994,0.055111,0.0027753,0.019603,0.11582,0.13271,0.19477,0.2312,0.21331999999999998,0.27514,0.31127,0.35195,0.3555,0.38411999999999996,0.45436000000000004,0.46771999999999997,0.55267,0.60665,0.59282,0.6385,0.63407,0.57789,0.60424,0.64986,0.6704399999999999,0.65071,0.61859,0.62045,0.6113,0.66661,0.72375,0.7280800000000001,0.7254,0.65293,0.6086699999999999,0.64977,0.6642899999999999,0.69667,0.72692,0.67111,0.6653,0.70499,0.70718,0.76464,0.7922399999999999,0.76368,0.8234600000000001,0.81214,0.8063100000000001,0.88965,0.9205399999999999,0.94525,0.92089,0.92529,0.77595,0.5912,0.69733,0.7255699999999999,0.66575,0.59307,0.44621000000000005,0.32664,0.14715,-0.015652000000000003,0.029706,0.14744000000000002,0.042793,-0.31444,-0.7771,-1.2786,-1.7736,-2.3441,-2.9806,-3.5307,-3.5529,-2.9126,-2.1155,-0.79747,0.16492
4,-1.3916,-2.9304,-3.5765,-3.8814,-3.6037,-3.2137,-2.2685,-1.6617,-1.5024,-1.1584,-0.8096,-0.7579,-0.66868,-0.71635,-0.68065,-0.62867,-0.64685,-0.61327,-0.62505,-0.59335,-0.61726,-0.63664,-0.60124,-0.62738,-0.58275,-0.63002,-0.66656,-0.7378100000000001,-0.68586,-0.68352,-0.6380399999999999,-0.66967,-0.6843899999999999,-0.75215,-0.73835,-0.67527,-0.72609,-0.65483,-0.59001,-0.59731,-0.49422,-0.5694100000000001,-0.44663,-0.31786,-0.3461,-0.28329,-0.20536,-0.10224,-0.15734,-0.034562999999999997,-0.041668000000000004,0.023041,-0.020166,0.011744,-5.2935e-05,-0.019862,0.0070894999999999994,0.060327,0.09382,0.022728,0.0080905,0.095945,0.024735,0.065327,0.1609,0.09492300000000001,0.17317000000000002,0.22223,0.1886,0.34876,0.36433000000000004,0.33541,0.37172,0.42663999999999996,0.46524,0.45761999999999997,0.43887,0.51493,0.5140399999999999,0.54778,0.5691,0.52288,0.52286,0.54683,0.5756100000000001,0.56158,0.49623999999999996,0.48276,0.4925,0.46253,0.54989,0.5598,0.51376,0.76479,0.87589,0.9541799999999999,1.136,1.2163,1.4629,1.6048,1.7843,1.7726,1.6466,1.6285,1.4433,1.3721,1.2174,1.0253,0.81888,0.52782,0.29091999999999996,0.20222,0.13217,0.16994,0.18861,0.20542,0.1782,0.13312000000000002,0.15350999999999998,0.1348,0.17670999999999998,0.15206,0.25515,0.18513,0.14506,0.26192,0.34618000000000004,0.68505,1.0767,1.2047,1.1609,1.2409999999999999,1.3373,1.1598,0.98992,0.95104,1.2344,1.0008,0.15905,-1.4954
4,-1.0271,-2.7539,-3.4785,-3.8609,-3.8741,-3.3892,-2.329,-1.8134,-1.8881,-1.1784,-0.61971,-0.55958,-0.73139,-0.61057,-0.5118199999999999,-0.49021000000000003,-0.53284,-0.4699,-0.36408,-0.47891999999999996,-0.47502,-0.57521,-0.5419,-0.70292,-0.37041,-0.32886,-0.49601999999999996,-0.6667,-0.76536,-0.44878999999999997,-0.40813,-0.6522100000000001,-0.7811,-0.69602,-0.61747,-0.66305,-0.56688,-0.63247,-0.62631,-0.73633,-0.42008999999999996,-0.50321,-0.32309,-0.12752,-0.39457,-0.4909,-0.17409000000000002,0.051989,0.14442,0.19185,0.063126,-0.11012999999999999,0.17525,0.2126,0.33587,0.12367,0.13754,0.15467,0.13766,0.22077,0.34845,0.35268,0.17897000000000002,0.20065,0.31125,0.44626000000000005,0.39419,0.42433000000000004,0.54113,0.48951000000000006,0.52662,0.7833600000000001,0.74157,0.48958,0.60918,0.91409,0.72236,0.47634,0.55248,0.6806399999999999,0.66838,0.62434,0.5493399999999999,0.6060300000000001,0.45779,0.20633,0.5121100000000001,0.5037699999999999,0.39924,0.45132,0.44918,0.52532,0.39611999999999997,0.14507,0.32897,0.69585,0.74631,0.73274,0.8099,1.1226,1.3887,1.7752,1.8364,1.6766,1.7012,1.7168,1.4731,1.425,1.0553,0.75761,0.37938,0.11744,-0.036336,-0.24298000000000003,-0.33612,-0.34399,-0.5064,-0.13039,-0.11409000000000001,-0.45801000000000003,-0.49603,-0.22066,-0.35176,-0.41384,-0.27342,-0.36228,-0.30019,-0.021134,0.14309000000000002,0.8134399999999999,1.1642,1.2121,1.4668,1.4666,1.0837,0.93381,0.48883999999999994,1.0688,1.6666,-0.010688
5,-0.52258,-1.5352,-2.3496,-2.9359,-3.056,-3.0189999999999997,-2.7746,-2.6349,-2.1859,-1.5499,-0.9829899999999999,-0.80278,-0.7217100000000001,-0.41171,-0.1068,0.046541,0.10880999999999999,0.09780599999999999,0.079835,0.13013,0.14159000000000002,0.13062,0.10171000000000001,0.12337999999999999,0.18545,0.16829000000000002,0.15467,0.15542,0.14296,0.11027,0.10282999999999999,0.13591,0.13171,0.14693,0.17298,0.15446,0.17262,0.13738,0.083584,0.099413,0.12988,0.10645,0.10550999999999999,0.094983,0.062204999999999996,0.10321,0.038916,0.065747,0.10495,0.03052,0.0064453,0.014108,0.066262,0.06553099999999999,0.05508,0.11029000000000001,0.11560999999999999,0.14428,0.17993,0.1785,0.23842,0.24481999999999998,0.20909,0.27371,0.38111999999999996,0.38288,0.38581,0.42515,0.4607,0.52935,0.55703,0.55609,0.57105,0.60658,0.64894,0.55071,0.5129100000000001,0.55889,0.51815,0.5210100000000001,0.45899999999999996,0.44752,0.5021800000000001,0.49172,0.47795,0.43006000000000005,0.44196,0.50361,0.50121,0.52403,0.49483999999999995,0.55692,0.56061,0.58982,0.61625,0.5363100000000001,0.59497,0.56106,0.59307,0.64605,0.6725899999999999,0.7216,0.68834,0.72537,0.79988,0.79491,0.79487,0.8035800000000001,0.8637299999999999,0.90701,0.95419,1.0048,0.9682799999999999,0.96142,0.9606600000000001,0.9143,0.8445799999999999,0.72027,0.6221300000000001,0.62297,0.66174,0.66118,0.5876600000000001,0.47403999999999996,0.38337,0.35389,0.34612,0.53609,0.54328,0.24211,-0.13881,-0.70586,-1.1497,-1.5699,-2.207,-2.7565,-3.5329,-3.3007,-3.0924,-1.7469999999999999
4,-1.1983,-2.4991,-3.0133,-3.5167,-3.8786,-3.8077,-3.0985,-1.8567,-1.1995,-1.0274,-0.48285,-0.20203,-0.21575,-0.25575,-0.16418,-0.042637,-0.12605999999999998,-0.1652,-0.1752,-0.14414000000000002,-0.040376999999999996,-0.15219000000000002,-0.17468,-0.12703,-0.055649000000000004,-0.072746,-0.07008400000000001,-0.097384,-0.039806,0.029725,-0.0589,-0.032192,0.008092199999999999,-0.03982,-0.077597,-0.020051,0.031841,-0.039356,-0.10177,-0.076379,0.0011208,0.11172,0.061815999999999996,0.083863,0.12317,0.098801,0.13291,0.11252000000000001,0.1371,0.13415,0.26909,0.11079000000000001,0.062178,0.13619,0.15165,0.042457,0.063386,0.019509000000000002,0.12197000000000001,0.090771,0.052552999999999996,0.059159,-0.037294,0.036275999999999996,0.07798,0.020983,0.048407,0.12845,0.17306,0.19673,0.12212,0.17790999999999998,0.19796,0.31192,0.38272,0.33116,0.36001,0.40166,0.42446000000000006,0.38816,0.4631,0.43183,0.48003999999999997,0.49241999999999997,0.51765,0.47443,0.5266,0.4846,0.48436999999999997,0.4453,0.43873999999999996,0.67204,0.60415,0.8594299999999999,1.033,1.0989,1.3435,1.5872,1.8757,2.1833,2.1891,2.2502,2.0647,1.8169,1.6355,1.4744,1.13,0.8545299999999999,0.49,0.16162,-0.063359,-0.14827,-0.1206,-0.13532,-0.20499,-0.165,-0.15127000000000002,-0.16644,-0.20601999999999998,-0.157,-0.1157,-0.24391999999999997,-0.20372,-0.14052,-0.20474,-0.18602,-0.01804,0.19701,0.95531,1.4453,1.0948,0.58801,-0.36014,-1.1613,-1.5187,-1.5926,-1.1798,-0.81843,-1.0651,-2.1605
5,-0.9890700000000001,-2.0125,-2.2838,-2.5696,-2.7319,-2.9315,-2.9173,-2.5767,-2.1638,-1.6401,-1.1675,-0.9936299999999999,-0.87392,-0.7600600000000001,-0.58465,-0.21608000000000002,0.061844,0.1752,0.16159,0.11755,0.10105,0.085425,0.2041,0.26927,0.20753000000000002,0.20015,0.18532,0.19564,0.24045,0.23555,0.21996999999999997,0.21991999999999998,0.22224000000000002,0.21504,0.19823,0.21996999999999997,0.24439,0.22721999999999998,0.26641,0.23806,0.14069,0.17055,0.17443,0.17514000000000002,0.25974,0.25961,0.22075,0.23478000000000002,0.23805,0.21045999999999998,0.14069,0.1088,0.17684,0.14128,0.051348000000000005,0.10105,0.10167000000000001,0.042452,0.099285,0.08394299999999999,0.041585000000000004,0.089517,0.0064628,0.024393,0.13095,0.041585000000000004,0.038727,0.11076,0.073311,0.042288,0.10105,0.1617,0.14626,0.20335,0.26711999999999997,0.27943,0.33405999999999997,0.32321,0.34589000000000003,0.40468000000000004,0.37853000000000003,0.44611999999999996,0.54118,0.51725,0.53259,0.61637,0.63913,0.63988,0.67347,0.6723600000000001,0.67584,0.71149,0.72085,0.76423,0.79367,0.75512,0.7783100000000001,0.83972,0.85551,0.8248,0.81458,0.86416,0.88646,0.9147,0.96006,0.9335,0.90794,0.95086,0.98282,0.9672799999999999,0.9533200000000001,0.99484,1.0509,0.97382,0.82078,0.75512,0.76659,0.80445,0.81798,0.813,0.75512,0.61075,0.52991,0.49617,0.3933,0.39835,0.51281,0.42567,0.15952,-0.14343,-0.65213,-1.3122,-1.9058,-2.6101,-3.2612,-3.4864,-3.0483,-1.9507,-0.93024,0.11150999999999998
1,-0.16546,-1.0322,-1.6045,-1.9146,-1.7995,-1.5491,-1.1596,-0.8256700000000001,-0.73761,-0.63547,-0.31473,-0.17074,-0.13391,-0.13005999999999998,-0.12301,-0.12328,-0.13210999999999998,-0.10715999999999999,-0.1328,-0.09816799999999999,-0.11855999999999998,-0.075148,-0.09567,-0.1065,-0.093639,-0.111,-0.098834,-0.12558,-0.14936,-0.11205,-0.15266,-0.17497000000000001,-0.15927,-0.15423,-0.16844,-0.2485,-0.24136999999999997,-0.19725,-0.20067000000000002,-0.16197,-0.15291,-0.13377999999999998,-0.10155,-0.081385,-0.08619500000000001,-0.01961,0.019814,0.0375,0.060216,0.09849400000000001,0.17312,0.20289000000000001,0.19399,0.1848,0.20231,0.22799,0.23215,0.20475,0.23481999999999997,0.28964,0.23914000000000002,0.23586,0.26588,0.23997,0.28515,0.32896,0.28307,0.29812,0.29327,0.35191999999999996,0.32347,0.35089000000000004,0.38101,0.40933,0.40008,0.41111000000000003,0.43516000000000005,0.48435,0.50712,0.49713999999999997,0.5304399999999999,0.55412,0.58616,0.5587300000000001,0.54567,0.5808399999999999,0.53837,0.5464600000000001,0.5482,0.54777,0.52568,0.51852,0.5158699999999999,0.502,0.5186,0.50803,0.47575,0.46003999999999995,0.43228,0.46246000000000004,0.42722,0.44683,0.48399,0.43194,0.42003999999999997,0.45282,0.45352,0.5292100000000001,0.60172,0.66594,0.73917,0.73333,0.78628,0.87277,0.9242,1.0026,1.0063,0.95352,0.97425,0.8663299999999999,0.8325600000000001,0.8199,0.76642,0.74149,0.816,0.92301,0.9719,0.7325,0.40188,0.23264,0.1107,-0.023472,-0.2983,-0.97154,-2.1628,-3.0734,-3.6697,-4.4411,-4.7588,-5.1504
4,-0.22498,-2.7389,-4.2515,-4.7337,-4.2496,-3.0145,-1.7949,-1.3739,-0.90989,-0.18854,-0.20255,-0.27639,-0.1556,-0.19654000000000002,-0.16137,-0.1303,-0.30646,-0.26232,-0.26350999999999997,-0.28003,-0.34473000000000004,-0.34904,-0.37240999999999996,-0.42218999999999995,-0.42901000000000006,-0.37535999999999997,-0.47661000000000003,-0.52576,-0.5161399999999999,-0.6378199999999999,-0.69147,-0.71114,-0.7419600000000001,-0.69195,-0.76676,-0.82532,-0.75233,-0.75029,-0.69677,-0.70168,-0.68148,-0.62019,-0.5258,-0.44591000000000003,-0.40976,-0.26368,-0.17728,-0.17987,0.028149,-0.071173,0.022119,0.10059,0.16516,0.088872,0.052952,0.089196,0.12813,0.10209,0.13568,0.02667,0.12134,0.079288,0.13445,0.18627,0.28673000000000004,0.32791,0.28603,0.31835,0.38372,0.40385,0.48295,0.47972,0.59722,0.61973,0.6648,0.62562,0.5502199999999999,0.59742,0.63732,0.62027,0.50872,0.62316,0.5874199999999999,0.56435,0.50264,0.40321999999999997,0.37577,0.40151,0.39438,0.42805,0.3789,0.2948,0.36166,0.25738,0.30109,0.41468999999999995,0.43816000000000005,0.5675899999999999,0.86082,1.101,1.236,1.3684,1.6626,1.97,2.0093,1.9184,1.8853,1.7445,1.4975,1.2616,0.9033899999999999,0.5290699999999999,0.12022000000000001,-0.1111,-0.1711,-0.26028,-0.15664,-0.11795,-0.32123,-0.26055,-0.1913,-0.18965,-0.16906,-0.17525,-0.066402,-0.046366000000000004,-0.076213,-0.06890299999999999,0.084489,0.32781,1.0782,1.4755,1.3427,1.2323,0.6523100000000001,0.0867,-0.23065,-0.015646,0.8153100000000001,-0.81202
4,0.59426,0.49291,-1.4096,-2.7563,-3.6625,-4.1269,-3.1035,-2.113,-1.9978,-1.0809,-0.27031,-0.39150999999999997,-0.28126,-0.27578,-0.30927,-0.36079,-0.31473,-0.35991999999999996,-0.38932,-0.40817,-0.4403,-0.55978,-0.6624399999999999,-0.6442100000000001,-0.6035,-0.7225600000000001,-0.71834,-0.8307700000000001,-0.78356,-0.9094399999999999,-1.0131,-0.96081,-1.0499,-1.0758,-1.1682,-1.1395,-1.1262,-1.1408,-1.1299,-1.0724,-1.0129,-1.0386,-0.89666,-0.7541,-0.54524,-0.48191999999999996,-0.39479000000000003,-0.38669000000000003,-0.31454,-0.29189,-0.19086,-0.13003,-0.13949,-0.21728000000000003,-0.20176,-0.0996,-0.035196,-0.097969,-0.12187,-0.10403,0.057460000000000004,0.10879000000000001,0.12669,0.1531,0.14856,0.24703000000000003,0.21475999999999998,0.30666,0.34381999999999996,0.30730999999999997,0.34476,0.42973,0.40204,0.5653,0.59444,0.57416,0.6954899999999999,0.6845,0.54957,0.60402,0.5582,0.48646999999999996,0.47600000000000003,0.5070399999999999,0.46795,0.38934,0.43223,0.42736,0.48252,0.32477,0.40258,0.3687,0.31861999999999996,0.34586999999999996,0.23260999999999998,0.25369,0.39719,0.31169,0.30316,0.25487,0.46606000000000003,0.47329,0.65335,1.1239,1.2225,1.4442,1.5468,1.7739,2.1526,2.2205,2.1942,1.9537,1.8619999999999999,1.6219999999999999,1.2392,0.80688,0.25363,-0.059675,-0.03294,-0.010598999999999999,-0.062984,-0.08922999999999999,0.0054225,-0.020904,-0.021313,0.058263999999999996,0.015790000000000002,0.060657,-0.0057117,0.15549000000000002,0.039999,0.25794,0.7891100000000001,1.3523,1.311,1.6524,1.6012,1.2545,0.6298600000000001,0.64295
4,-2.8587,-3.2174,-3.2196,-2.9399,-2.6359,-2.2524,-1.8508,-2.0337,-1.4022,-0.49099,-0.87098,-1.3504,-0.7921199999999999,-0.7127,-1.0094,-0.38292,-0.27751,-1.0746,-1.4495,-0.98415,-0.61556,-0.6067899999999999,-0.79588,-0.73032,-0.74387,-1.0649,-0.95019,-0.72018,-0.29315,-0.214,-0.57302,-0.8788,-0.96242,-0.54796,-0.3014,-0.098945,-0.65777,-1.2084,-1.0659999999999998,-1.0982,-0.77527,-0.75438,-0.5293800000000001,0.11327999999999999,0.12265999999999999,-0.20448,-0.32626,-0.64862,-0.38753000000000004,0.42594,0.42165,-0.30244,-0.40249,-0.19153,-0.58212,-0.55657,0.24778000000000003,0.5908899999999999,0.22828,-0.064421,-0.10425,0.20213,-0.067969,-0.69562,-0.40259,0.40224,0.23931,-0.18979000000000001,0.31338,0.46603999999999995,0.14332,-0.29972,-0.21600000000000003,0.32549,0.5464600000000001,0.80257,1.0047,0.92837,0.6176,0.36495,0.26729,0.2328,0.44083,0.28549,-0.38137,-0.24900999999999998,0.7298399999999999,0.9538700000000001,0.84447,0.81978,0.6260100000000001,0.11765,0.10941,0.94265,1.0032,0.92138,1.1011,1.1228,1.3828,1.4581,1.2509,1.7047,1.7348,1.3926,1.4585,1.37,1.2429999999999999,1.2221,1.1085,0.79128,0.65625,0.12961,-0.73457,-0.12795,0.81825,0.49912,0.12299000000000002,0.63156,0.92489,0.75725,0.3136,-0.09991900000000001,0.45073,1.0407,0.86882,0.76031,0.98441,0.69498,0.77678,1.3913,1.161,0.97987,1.4466,1.1957,0.44228,0.39387,0.70703,0.65658,0.58116,0.69939
5,-0.57135,-1.0353,-1.1816,-1.5548,-1.6134,-1.7658,-1.9764,-1.9935,-2.0298,-1.9823,-1.694,-1.2329999999999999,-0.7896,-0.5584100000000001,-0.50712,-0.3821,-0.13313,0.088861,0.21731999999999999,0.2019,0.14677,0.19973,0.24814,0.23723000000000002,0.29002,0.32126,0.26056,0.29952,0.39782,0.39587,0.36132,0.33342,0.36834,0.42431,0.38166,0.35675999999999997,0.35654,0.28518000000000004,0.26883,0.34418000000000004,0.3869,0.37759000000000004,0.35631,0.32589,0.32025,0.33386,0.35475999999999996,0.39324000000000003,0.38076,0.36549,0.39465,0.35318,0.29943000000000003,0.30477,0.32685,0.37181,0.36251,0.31031,0.32649,0.39904,0.49346999999999996,0.5333600000000001,0.5169100000000001,0.52076,0.49833,0.49281,0.54533,0.56129,0.58431,0.6352300000000001,0.5928800000000001,0.53708,0.61046,0.68501,0.66846,0.65522,0.6481100000000001,0.6362800000000001,0.63984,0.67097,0.72739,0.71329,0.66774,0.68299,0.6641100000000001,0.63235,0.6792199999999999,0.70505,0.65897,0.63068,0.62055,0.5957,0.58386,0.56486,0.54648,0.57363,0.61314,0.6340399999999999,0.64007,0.65265,0.68995,0.69996,0.6520199999999999,0.6085699999999999,0.61473,0.64666,0.67755,0.6531,0.59845,0.6036699999999999,0.60358,0.59351,0.59301,0.50971,0.47425,0.53778,0.5828399999999999,0.6438,0.62913,0.48049,0.35583000000000004,0.20142000000000002,-0.053907000000000004,-0.21915,-0.28106,-0.40807,-0.54788,-0.73016,-1.1026,-1.5695,-2.0635,-2.5665,-3.1711,-3.7319999999999998,-3.7859,-3.4952,-2.7551,-1.7888,-1.3759,-0.34435
4,-1.5072,-1.0575,-1.672,-4.2171,-4.18,-3.5828,-2.8304,-1.7169,-0.094419,-0.018411,0.47161000000000003,0.97829,0.97596,0.5493100000000001,0.61125,0.58444,0.6439699999999999,0.75736,0.74931,0.9211600000000001,1.0034,1.0423,1.1258,1.1009,1.068,0.97046,1.1835,1.2627,1.0852,1.2647,0.87795,0.79145,0.70258,0.6581100000000001,0.75842,0.5978899999999999,0.52863,0.22479000000000002,0.20431,0.11344000000000001,-0.027808999999999997,0.033926,-0.31577,-0.20461,-0.13889,-0.22493000000000002,-0.33013000000000003,-0.34038,0.08224,0.17253,0.09628099999999999,0.18412,0.29549000000000003,0.19697,0.20181,0.35234,0.2875,0.15750999999999998,-0.045103,-0.094706,5.2137e-05,0.035875,-0.25706999999999997,-0.30646,-0.35561,-0.33075,-0.24375,-0.28464,-0.2934,-0.31085999999999997,-0.414,-0.34399,-0.44243000000000005,-0.54093,-0.47266,-0.41181999999999996,-0.47648999999999997,-0.40285,-0.48468,-0.39036,-0.41938000000000003,-0.23667,-0.41616000000000003,-0.32716999999999996,-0.40215,-0.38414,-0.25577,-0.25178,-0.40491,-0.46182,-0.51305,-0.27264,-0.5827399999999999,-0.33966,-0.48907,-0.29306,-0.45308999999999994,-0.29111,-0.18236,-0.38229,-0.3033,-0.2904,-0.21823,-0.21452,-0.21241,-0.15159,0.1617,0.29403,0.5728800000000001,0.76703,1.1997,1.7486,2.2605,2.1367,2.0009,1.5286,1.1962,0.80403,0.25911999999999996,-0.59702,-0.8599100000000001,-1.1211,-0.9857899999999999,-0.97614,-1.1447,-1.0501,-0.96246,-0.96567,-0.81957,-0.85172,-0.9527399999999999,-0.45093,0.86235,0.8881899999999999,0.9038799999999999,1.3422,1.3064,0.98755,1.3874,1.3373
4,-0.46282,-2.6441,-3.8393,-4.3961,-3.8719,-3.065,-1.9786,-1.7930000000000001,-1.2405,-0.48618999999999996,-0.38108000000000003,-0.39547,-0.37304,-0.39396,-0.39007,-0.37859,-0.41531999999999997,-0.33635,-0.41593,-0.38966,-0.4844,-0.55694,-0.49361000000000005,-0.53776,-0.5713699999999999,-0.59829,-0.62543,-0.63936,-0.69834,-0.71729,-0.7326,-0.8628899999999999,-0.97631,-0.88097,-0.8969,-0.9315899999999999,-0.9371299999999999,-0.8904,-0.97762,-0.8569700000000001,-0.7684300000000001,-0.72122,-0.6594800000000001,-0.54951,-0.48258,-0.35399,-0.2634,-0.27089,-0.06385199999999999,-0.054515,0.03766,0.0030544,0.13582,0.1316,0.10505999999999999,0.16412000000000002,0.18628,0.09951,0.12722999999999998,0.20475,0.29933000000000004,0.21101999999999999,0.23851999999999998,0.32186,0.27605,0.2788,0.48731,0.42668,0.41603,0.44828,0.49854,0.52759,0.59825,0.58817,0.5847399999999999,0.67214,0.7044600000000001,0.5874,0.7549399999999999,0.58836,0.6340600000000001,0.73134,0.5969300000000001,0.56363,0.58187,0.73817,0.5654600000000001,0.5446300000000001,0.5203899999999999,0.51426,0.52852,0.47205,0.51483,0.45414,0.43513,0.39943,0.48625,0.5405399999999999,0.8104100000000001,0.99256,1.2041,1.2919,1.4067,1.6342,1.8537,1.9479,1.8958,1.8611,1.6811,1.5421,1.2697,1.0579,0.70414,0.23268000000000003,-0.041274,-0.10061,-0.14167000000000002,-0.15184,-0.16485,-0.12691,-0.21533000000000002,-0.17785,-0.10153,-0.17164000000000001,-0.19059,-0.15852,-0.1921,-0.12992,-0.05563099999999999,0.13892000000000002,0.66965,0.9629200000000001,0.81907,0.6816399999999999,0.52044,0.3871,0.43213999999999997,0.6452899999999999,1.4727,0.18058
4,-0.6192,-1.7578,-2.5266,-2.9871,-3.5012,-3.8357,-3.6027,-2.7604,-1.51,-1.3363,-0.99164,-0.28459,-0.09992999999999999,-0.09576799999999999,-0.06544900000000001,-0.17322,-0.13787,-0.13677,-0.061662,-0.026382999999999997,-0.056185,-0.082687,-0.051658,-0.0027195,-0.042102999999999995,-0.041856,0.015868,-0.030019,-0.038602,-0.10067999999999999,-0.026695,0.062955,0.0041364,-0.11913,-0.047547000000000006,0.033781,-0.036377,-0.15471,-0.16178,-0.11292,0.057083,0.046494,0.10694000000000001,0.12392,0.09537799999999999,0.05971,0.10835,0.26438,0.24173000000000003,0.081712,0.11712,0.22335,0.20385999999999999,0.1198,0.15048,0.14556,0.08945399999999999,0.073394,0.035913,0.1232,0.07713300000000001,0.10289000000000001,0.10945,0.084597,0.12866,0.1928,0.049037,0.26326,0.34868000000000005,0.29211,0.1131,0.2173,0.37142,0.35144000000000003,0.44593999999999995,0.51935,0.5333,0.55381,0.54527,0.59102,0.47476999999999997,0.56429,0.5836100000000001,0.59704,0.58525,0.57672,0.54099,0.51965,0.5751,0.4866,0.46602,0.38361999999999996,0.6632100000000001,0.7418100000000001,0.8948799999999999,1.0109,1.1278,1.3054,1.5421,1.7689,2.0134,2.0321,1.8675,1.8962,1.6812,1.3923,1.3951,1.1764,0.7554,0.66776,0.30585999999999997,-0.15079,-0.23792,-0.26547,-0.29007,-0.31359000000000004,-0.39955999999999997,-0.42951000000000006,-0.35388000000000003,-0.40834000000000004,-0.26254,-0.27269,-0.35058,-0.42053999999999997,-0.44756999999999997,-0.38774000000000003,-0.3212,-0.048882,0.57918,1.3695,1.4144,1.036,0.25888,-0.8347100000000001,-1.5172,-2.0165,-2.1887,-1.5373,-0.8847299999999999,-1.7693
4,0.20277,-2.3543,-3.8933,-4.3943,-4.1461,-3.1414,-2.0298,-1.7296,-1.3326,-0.44405,-0.28912,-0.26958000000000004,-0.24405,-0.3264,-0.293,-0.30246,-0.36658,-0.29695,-0.32686,-0.34175,-0.44093000000000004,-0.41462,-0.465,-0.56635,-0.53046,-0.65074,-0.6421100000000001,-0.6519699999999999,-0.72812,-0.70991,-0.74324,-0.78763,-0.83393,-0.94686,-0.82465,-0.72954,-0.7631399999999999,-0.82195,-0.74115,-0.68377,-0.61359,-0.56812,-0.54793,-0.32895,-0.33445,-0.2397,-0.13822,-0.12688,-0.15613,-0.058496000000000006,-0.066798,-0.029289,0.040249,0.021255,0.023347,0.084922,0.088465,0.16057000000000002,0.13964000000000001,0.1459,0.1888,0.23476,0.3266,0.2527,0.3065,0.36741999999999997,0.40708,0.43451999999999996,0.46468000000000004,0.55482,0.61582,0.57763,0.51702,0.60197,0.60259,0.55401,0.48431,0.56157,0.42586999999999997,0.52742,0.51031,0.5313,0.5808800000000001,0.50505,0.51064,0.43561000000000005,0.42953,0.4015,0.36053,0.42033999999999994,0.46341000000000004,0.39695,0.26015,0.38895,0.38831,0.41578000000000004,0.49554,0.64656,0.8975799999999999,1.0935,1.2676,1.4040000000000001,1.6171,1.8242,1.9496,1.8568,1.7099,1.5789,1.3465,1.1096,0.82655,0.63065,0.22589,-0.20147,-0.22409,-0.32223,-0.22078000000000003,-0.33426999999999996,-0.23568000000000003,-0.22975,-0.27959,-0.31635,-0.28986999999999996,-0.23314000000000001,-0.32911,-0.22249000000000002,-0.18284,-0.17802,-0.06339199999999999,0.28973000000000004,0.8755200000000001,0.89592,0.9882200000000001,1.2335,1.2055,1.0446,1.0835,1.3884,1.649,-0.77685
4,-1.1511,-2.9451,-3.8669,-4.4204,-4.1606,-3.6974,-2.842,-1.6538,-1.2915,-1.0673,-0.44201,-0.20204,-0.30118,-0.27235,-0.32835,-0.1575,-0.11915,-0.12864,-0.066817,-0.0010225,-0.11409000000000001,-0.16084,-0.12180999999999999,-0.20849,-0.019553,-0.11702,-0.21144000000000002,-0.10022,-0.13633,-0.09312899999999999,-0.024615,0.060136,-0.031689999999999996,0.030782999999999998,0.030802999999999997,-0.023246,-0.027382,-0.024024,-0.11069000000000001,0.053104,0.06396,0.088232,0.014605000000000002,0.11173,0.27744,0.15792,0.15586,0.26498,0.30491999999999997,0.22551999999999997,0.29427,0.32879,0.25926,0.18054,0.13701,0.044924,0.11681,0.082099,0.048811,0.11341,0.23031,0.21598,0.15723,0.080706,0.052145000000000004,0.082615,0.055340999999999994,0.11617999999999999,0.2291,0.2652,0.19755999999999999,0.2359,0.28305,0.23476,0.41088,0.35956,0.45247,0.43653000000000003,0.34231999999999996,0.36661,0.40798,0.4399,0.47407,0.29703,0.37546999999999997,0.36985999999999997,0.24993,0.35596,0.23819,0.15752,0.24985,0.48641,0.53435,0.69786,0.75508,0.8762,1.1966,1.3353,1.6305,1.9780000000000002,2.1783,2.1156,2.1199,1.9647,1.6896,1.3702,1.1271,0.77503,0.6704399999999999,0.31443000000000004,-0.05416900000000001,-0.32949,-0.35941999999999996,-0.40826999999999997,-0.47655,-0.47858999999999996,-0.44903999999999994,-0.3895,-0.34688,-0.38793,-0.37929,-0.44203000000000003,-0.49436,-0.40066,-0.33187,-0.26079,-0.29636999999999997,-0.21886,0.30507,0.8585,0.9711,0.94111,0.71078,0.11771,-0.14944000000000002,-0.40571999999999997,-0.40789000000000003,0.1954,-0.033762,-1.6407
4,0.12401,-1.9956,-3.6966,-4.731,-4.335,-2.9696,-1.8279,-1.5871,-1.1003,-0.39755999999999997,-0.21589,-0.20793000000000003,-0.15650999999999998,-0.28804,-0.41121,-0.4836,-0.40541,-0.18863,-0.23581999999999997,-0.32911,-0.37739,-0.41816000000000003,-0.48263,-0.41225,-0.3661,-0.45561,-0.45366999999999996,-0.55989,-0.6260100000000001,-0.7288,-0.77336,-0.7888,-0.78581,-0.60609,-0.8246100000000001,-0.9883200000000001,-0.90559,-0.86667,-0.8597600000000001,-0.80896,-0.67806,-0.56367,-0.42628999999999995,-0.35178000000000004,-0.36461,-0.09263099999999999,-0.075379,0.0066210999999999996,-0.087212,-0.043448,-0.058946000000000005,0.047932,0.07044500000000001,-0.10215,-0.0094699,0.15496,0.13716,0.17095,0.21064000000000002,0.23719,0.14715999999999999,0.15123,0.23167,0.3843,0.22123,0.31232,0.36106,0.50016,0.5463,0.55097,0.61169,0.59087,0.48215,0.5029600000000001,0.47365,0.49422,0.48473,0.58925,0.5133300000000001,0.46678000000000003,0.50722,0.37116,0.3832,0.4291,0.39171999999999996,0.37137,0.36515,0.35084,0.36733000000000005,0.34652,0.23056999999999997,0.21738000000000002,0.26591,0.19022,0.32836,0.36104,0.60018,0.7300300000000001,0.96791,1.1063,1.1709,1.4267,1.7381,1.9685,1.9243,1.7539,1.7116,1.4087,1.1545,1.0772,0.84162,0.37966,-0.0019487999999999999,-0.36454000000000003,-0.23126,-0.31329,-0.35644000000000003,-0.49433,-0.42646000000000006,-0.39011999999999997,-0.3073,-0.21500999999999998,-0.27731,-0.27476999999999996,-0.34318000000000004,-0.4387,-0.38958000000000004,-0.25284,-0.012862,0.19752999999999998,1.1167,1.6709,1.692,1.8278,1.7865,1.1677,0.60369,0.2651,0.89166,0.16208
4,-1.3727,-2.9683,-3.8012,-3.8344,-3.2276,-2.4871,-1.8468,-1.7121,-1.1975,-0.7791899999999999,-0.73829,-0.6917,-0.72493,-0.76065,-0.7208,-0.6702899999999999,-0.69488,-0.7035899999999999,-0.7610600000000001,-0.7871600000000001,-0.767,-0.6915399999999999,-0.6994100000000001,-0.79588,-0.78952,-0.7760699999999999,-0.82604,-0.8832700000000001,-0.92432,-0.93589,-0.95426,-0.8661,-0.89476,-1.001,-0.94894,-1.0027,-0.96585,-0.89604,-0.86725,-0.80309,-0.82204,-0.74135,-0.6579699999999999,-0.60119,-0.49093000000000003,-0.4549,-0.35354,-0.29575,-0.27993,-0.17164000000000001,-0.11406,-0.10818,-0.10082,-0.0996,-0.10345,0.00095113,0.039724,-0.0084694,0.053563,0.10602,0.089551,0.1401,0.14257999999999998,0.16748,0.25158,0.31489,0.304,0.33851,0.46513000000000004,0.5412600000000001,0.43943999999999994,0.5079199999999999,0.58926,0.58136,0.55498,0.60861,0.5853,0.55861,0.6292300000000001,0.55999,0.56135,0.62163,0.53984,0.56494,0.53158,0.47748999999999997,0.54519,0.5052399999999999,0.52041,0.50027,0.46771,0.51979,0.45682,0.54667,0.51455,0.59637,0.7303,0.77812,1.0111,1.0758,1.1741,1.3536,1.5193,1.7561,1.6284,1.6626,1.5301,1.4001,1.2566,1.0415,0.9330299999999999,0.6366,0.38279,0.20432,0.24064000000000002,0.2099,0.15282,0.20481999999999997,0.19969,0.19402,0.18404,0.17167000000000002,0.27131,0.2816,0.20572,0.19095,0.23290999999999998,0.24086999999999997,0.29093,0.7068800000000001,1.0925,1.1324,1.1384,1.3295,1.2072,1.1107,0.9787600000000001,1.4262,1.8338,0.8302700000000001
4,-0.35222,-3.5452,-4.2597,-4.6015,-3.9899,-2.5464,-1.818,-1.5930000000000002,-0.4939,-0.20257,-0.31745999999999996,-0.23986999999999997,-0.25918,-0.23648000000000002,-0.21409,-0.2216,-0.3037,-0.24629,-0.2885,-0.31665,-0.42012,-0.40032,-0.38003000000000003,-0.52563,-0.45296000000000003,-0.5301600000000001,-0.61268,-0.67315,-0.68939,-0.7298899999999999,-0.7850199999999999,-0.8637299999999999,-0.8915700000000001,-0.87423,-0.98269,-0.7743399999999999,-0.8033,-0.7177899999999999,-0.64427,-0.5786,-0.40015,-0.32206999999999997,-0.31878,-0.22953,-0.21349,-0.1255,0.032476,-0.0659,0.029124,0.13132,0.10887000000000001,0.1326,0.20986999999999997,0.15058,0.25009000000000003,0.18019000000000002,0.30189,0.22926,0.42222,0.37911999999999996,0.52613,0.44511000000000006,0.60897,0.67486,0.66235,0.7068300000000001,0.75697,0.78392,0.74916,0.81328,0.75935,0.7671100000000001,0.81407,0.77381,0.72638,0.70168,0.61517,0.60678,0.63055,0.61573,0.64913,0.56347,0.51735,0.55204,0.5282399999999999,0.46288,0.52041,0.30708,0.40729,0.4384,0.36323,0.36206,0.41002,0.36304000000000003,0.21900999999999998,0.30794,0.32573,0.31135,0.24975,0.32214,0.6262800000000001,0.99075,1.2358,1.3889,1.5384,1.8281,1.7462,1.8225,1.8352,1.4526,1.2598,0.8982399999999999,0.6883,0.2027,-0.28659,-0.33049,-0.48893000000000003,-0.47498,-0.44709,-0.42223999999999995,-0.46436000000000005,-0.4865,-0.35329,-0.5527,-0.42855,-0.45237,-0.46641000000000005,-0.30372,-0.37226,-0.37427,-0.070449,0.58504,1.1611,1.1742,1.1757,0.64484,0.22545,-0.14544,0.85056,0.1651
4,0.15047,-1.5794,-3.345,-4.4079,-4.035,-3.1458,-2.1908,-1.7613,-1.5366,-0.71135,-0.385,-0.45368,-0.43983999999999995,-0.4725,-0.44559,-0.49498000000000003,-0.49635,-0.5064,-0.48572,-0.55971,-0.49291,-0.5292100000000001,-0.60516,-0.56353,-0.65583,-0.67985,-0.73441,-0.72628,-0.81028,-0.8521200000000001,-0.84596,-0.88229,-0.9476700000000001,-0.95237,-0.94344,-0.8810600000000001,-0.8876700000000001,-0.8640100000000001,-0.9023200000000001,-0.7441399999999999,-0.75266,-0.59751,-0.54047,-0.51303,-0.48528999999999994,-0.38456999999999997,-0.30345,-0.20698000000000003,-0.17647000000000002,-0.16082,-0.099106,-0.23076999999999998,-0.091586,-0.1211,-0.049552,0.011993,0.017579,0.081726,-0.036660000000000005,0.13119,0.10132000000000001,0.095724,0.23604,0.19755999999999999,0.22758,0.28353,0.298,0.38487,0.42738999999999994,0.44708000000000003,0.46242,0.5122,0.6269899999999999,0.6100399999999999,0.68233,0.67377,0.69107,0.61848,0.5141899999999999,0.6281100000000001,0.6056199999999999,0.62149,0.53081,0.52159,0.47902,0.4375,0.47936000000000006,0.49491999999999997,0.48651000000000005,0.4676,0.45282,0.44787,0.35265,0.40612,0.48091999999999996,0.47733000000000003,0.65695,0.78105,1.0294,1.0839,1.2099,1.4823,1.6646,1.7418,1.6955,1.6647,1.5648,1.3971,1.222,0.86346,0.70309,0.46837,0.13806,-0.052947,-0.10865999999999999,-0.1675,-0.14457,-0.12129000000000001,-0.11397,-0.11525999999999999,-0.07802200000000001,-0.1112,-0.1687,-0.1165,-0.069314,0.027710000000000002,0.040542,0.043122,0.33323,0.69,1.1606,1.2008,1.4072,1.7689,1.8054,1.4654,1.1234,1.074,1.1346,-0.42428
4,0.0029555999999999996,-0.9486600000000001,-2.0397,-2.8204,-3.6035,-3.9504,-3.1318,-2.1031,-1.6471,-1.4066,-0.5736899999999999,-0.43604,-0.52813,-0.5081399999999999,-0.49525,-0.50562,-0.37914000000000003,-0.40228,-0.58739,-0.55534,-0.46388,-0.52323,-0.62131,-0.67686,-0.70472,-0.58775,-0.54819,-0.59608,-0.5806100000000001,-0.60064,-0.59605,-0.35629,-0.46243999999999996,-0.46863,-0.31146,-0.4048,-0.34492,-0.34625,-0.39557,-0.27069,-0.33646,-0.43611000000000005,-0.59815,-0.47984,-0.49728,-0.50083,-0.29212,-0.20114,-0.18788,-0.025643,-0.083691,-0.0097323,-0.0044945,0.017312,0.09237100000000001,0.1717,0.20104,0.067084,0.041530000000000004,-0.049575,-0.016046,0.071008,0.24169000000000002,0.1707,0.061689,0.16568,0.21229,0.25390999999999997,0.32866,0.40142,0.45335,0.46705,0.55286,0.5784199999999999,0.62471,0.70931,0.72127,0.69713,0.74034,0.76946,0.8022199999999999,0.85701,0.83846,0.73802,0.71709,0.7979,0.74238,0.66122,0.57067,0.5233399999999999,0.7076399999999999,0.64043,0.6835600000000001,0.62332,0.71322,0.79775,0.78088,0.96124,1.0639,1.2464,1.5229,1.9297,2.3099,2.3955,2.3334,2.2515,1.9804,1.6492,1.3792,1.213,0.9687899999999999,0.34273000000000003,-0.033979,-0.16759000000000002,-0.25689,-0.24464,-0.20307999999999998,-0.23651999999999998,-0.2318,-0.21191999999999997,-0.26483,-0.28115999999999997,-0.26184,-0.35386999999999996,-0.33803,-0.19644,-0.15757000000000002,0.011124,0.11813,0.79271,1.6596,1.4380000000000002,0.72272,-0.036898,-0.82181,-1.3647,-1.4609999999999999,-1.0617,-0.097701,-0.81445
4,-1.5759999999999998,-3.3379,-3.8873,-4.6261,-4.2145,-3.193,-1.8413,-1.4395,-1.0838,-0.32946,-0.33914,-0.2701,-0.31074,-0.36233000000000004,-0.31801999999999997,-0.26925,-0.19382,0.0040885,-0.08177100000000001,-0.061392999999999996,-0.2005,-0.23681999999999997,-0.07053999999999999,-0.061915,-0.10413,-0.1419,0.060957000000000004,0.09800700000000001,0.048544,0.044982999999999995,0.055406,0.1461,0.10929000000000001,0.16762,0.18524000000000002,0.13502,0.18623,0.17336,0.14345,0.26339,0.28198,0.14060999999999998,0.24871,0.27101,0.18137,0.13985,0.22008000000000003,0.33405999999999997,0.38849,0.29391,0.15631,0.23801,0.15834,0.08251599999999999,0.19472,0.18852,0.14286,0.026733,0.03387,0.20769,0.15527,0.20970999999999998,0.1838,0.033822000000000005,0.012575,0.015687,0.12586,0.284,0.23546999999999998,0.14573,0.16049000000000002,0.23295,0.23715999999999998,0.36141,0.25178,0.31468,0.42823999999999995,0.5058699999999999,0.55047,0.58927,0.37773,0.48432,0.45653,0.39006,0.51194,0.41895,0.42627,0.38894,0.31506,0.3269,0.32103000000000004,0.19827,0.23167,0.26955999999999997,0.31178,0.35233000000000003,0.37183,0.5474399999999999,0.65447,0.71297,0.9322600000000001,1.2845,1.6802,1.9882,2.0068,1.9964,1.7482,1.5019,1.3459999999999999,1.1217,0.72036,0.36996999999999997,0.0017120000000000002,-0.20533,-0.25605,-0.2112,-0.28281999999999996,-0.31799,-0.29796,-0.27468000000000004,-0.1859,-0.13785,-0.25175,-0.22307,-0.15795,-0.18434,-0.10695,-0.04056,-0.0026233,0.53228,1.3449,1.6385,1.0096,0.22334,-0.7351800000000001,-1.7585,-2.0641,-1.9184,-1.0996,-1.0364
2,-2.4513,-3.1931,-3.8544,-3.9754,-3.6532,-3.1446,-2.5127,-1.7506,-1.4763,-1.1417,-0.8366399999999999,-0.48691999999999996,-0.32635,-0.32733,-0.30735,-0.3084,-0.33281,-0.3194,-0.2429,-0.27258000000000004,-0.29113,-0.35905,-0.33698,-0.3386,-0.30519,-0.26489,-0.36671,-0.27844,-0.28408,-0.30591,-0.36283000000000004,-0.3705,-0.43828999999999996,-0.34722,-0.44027,-0.34074,-0.36721,-0.3873,-0.461,-0.50451,-0.50478,-0.54967,-0.50232,-0.50608,-0.46306,-0.54757,-0.58511,-0.49455,-0.40788,-0.42273,-0.40939000000000003,-0.36378,-0.39199,-0.30573,-0.25756999999999997,-0.18525999999999998,-0.14818,-0.14272,0.00049982,0.076318,0.023259000000000002,-0.0082291,0.14749,0.089094,0.13502,0.10443,0.06270099999999999,0.11837,0.095808,0.18711,0.092339,0.13790999999999998,0.12180999999999999,0.20284000000000002,0.17545,0.17012,0.1852,0.18757000000000001,0.21941,0.23339000000000001,0.3018,0.20148,0.18145,0.1875,0.22011,0.12624000000000002,0.073449,0.12011,0.067445,0.13975,0.1509,0.15306,0.12435999999999998,0.0065755,0.039768,0.17977,0.24481,0.1995,0.43573999999999996,0.56601,0.5977899999999999,0.59317,0.68047,0.93605,1.0144,1.0081,0.91346,0.71729,0.6212300000000001,0.7568600000000001,0.62902,0.6289100000000001,0.56797,0.67288,0.62539,0.66655,0.6844100000000001,0.66027,0.66141,0.59129,0.58622,0.60356,0.65828,0.7406,0.89895,1.2793,1.6185,1.7733,1.7008,1.9012,1.8037,1.7447,1.6795,1.3971,1.1408,1.3452,1.7231,1.5754,0.66627,-0.28799
5,1.5375,1.4333,0.89591,0.12415999999999999,-0.54069,-0.92824,-1.4012,-1.6565,-1.6076,-1.1617,-0.74449,-0.48923,-0.35896999999999996,-0.29707,0.061775,0.40114,0.46308999999999995,0.50144,0.42371000000000003,0.42658,0.43908,0.39859,0.40752,0.42361000000000004,0.38468,0.39731,0.37847,0.37887,0.40621,0.4054,0.3502,0.28472,0.26688,0.27781,0.30338000000000004,0.22714,0.21854,0.23318000000000003,0.25131,0.17661,0.18394000000000002,0.17869000000000002,0.10772000000000001,0.07964,-0.028227,-0.011635,-0.0075847,-0.018221,-0.038459,-0.12653,-0.089087,-0.15453,-0.13567,-0.11874000000000001,-0.15184,-0.072161,-0.18583,-0.15902,-0.04888,-0.085245,-0.074866,-0.071998,-0.040555,0.031745999999999996,0.072257,0.07511799999999999,0.19087,0.18657,0.23255,0.28294,0.3043,0.34143,0.34535,0.28674,0.33788,0.41795,0.41907,0.42194,0.42996999999999996,0.43018999999999996,0.38319000000000003,0.45907,0.46253,0.44572,0.447,0.39975,0.53083,0.48732,0.50576,0.53376,0.49041999999999997,0.50964,0.46986999999999995,0.48898,0.44938999999999996,0.56581,0.57513,0.60354,0.62522,0.63647,0.69562,0.59468,0.64272,0.66894,0.6933199999999999,0.78398,0.73706,0.7482,0.75842,0.79867,0.80828,0.7843100000000001,0.75976,0.75305,0.74302,0.77377,0.72822,0.72611,0.70282,0.68299,0.52577,0.34210999999999997,0.2389,0.24795,0.036993,-0.2492,-0.49063,-0.67773,-1.1029,-1.271,-1.4075,-1.771,-2.1524,-2.5993,-3.1074,-3.5192,-4.1661,-4.5177,-3.8148,-2.6286
4,0.68521,-0.91886,-2.6648,-3.7999,-4.3061,-3.8549,-3.0633,-1.9488,-1.5029,-1.1605,-0.50354,-0.48375,-0.38644,-0.37793000000000004,-0.24624000000000001,-0.2235,-0.35686999999999997,-0.39223,-0.43476000000000004,-0.30796999999999997,-0.3052,-0.62088,-0.5069600000000001,-0.43199,-0.55253,-0.51394,-0.49396,-0.52094,-0.5161100000000001,-0.59715,-0.66046,-0.78905,-0.82115,-0.9601799999999999,-0.73463,-0.7309399999999999,-0.8634299999999999,-0.9016700000000001,-0.80834,-0.77682,-0.6171,-0.55477,-0.58333,-0.6231,-0.46568999999999994,-0.24873,-0.17099,-0.12955,-0.044622,-0.08179600000000001,-0.14184000000000002,-0.072992,0.019341,0.19039,0.16719,0.051576,0.11366,0.093999,0.13555999999999999,0.08282,0.060826,0.1478,0.07195900000000001,0.19145,0.20911999999999997,0.19946,0.36833,0.3904,0.23521,0.22794,0.43178999999999995,0.56882,0.6995,0.5956,0.3894,0.47546000000000005,0.6063,0.58007,0.52779,0.55591,0.58334,0.65058,0.7207,0.44461000000000006,0.36999,0.50112,0.63226,0.52864,0.5344399999999999,0.68157,0.33931999999999995,0.32750999999999997,0.39921,0.4057,0.56252,0.68378,0.7762100000000001,0.89339,1.1029,1.0059,1.2306,1.5342,1.7542,2.0194,1.9994,1.7065,1.6406,1.6094,1.4764,1.0298,0.66287,0.46085,0.12307,-0.074587,-0.069097,-0.11265,-0.047693,-0.083177,-0.17188,-0.069914,0.096002,-0.066319,-0.12211,-0.0058081,-0.41723999999999994,-0.10525999999999999,0.037258,0.1063,0.34217,0.87285,1.2342,1.1096,1.1699,1.1039,0.97021,0.59888,0.76879,0.71826,-0.11575999999999999,-2.3564
4,-0.29696999999999996,-2.1499,-3.8357,-4.6701,-4.3341,-3.2395,-2.0803,-1.6654,-1.266,-0.37437,-0.17677,-0.12855,-0.11978,-0.15617,-0.13899,-0.23956,-0.21229,-0.18792999999999999,-0.32211,-0.25825,-0.23563,-0.36082,-0.36838000000000004,-0.42945,-0.44869,-0.41061000000000003,-0.5008,-0.44803000000000004,-0.55477,-0.55218,-0.64986,-0.78036,-0.78341,-0.72414,-0.77378,-0.84157,-0.8341299999999999,-0.71913,-0.7078800000000001,-0.70117,-0.6017399999999999,-0.6036,-0.5109600000000001,-0.4159,-0.26871999999999996,-0.22301999999999997,-0.24201999999999999,-0.072074,-0.041788,-0.045689,-0.07269099999999999,0.064551,0.073666,0.058864,0.13371,0.1532,0.1373,0.14165,0.14740999999999999,0.1878,0.13721,0.26026,0.31171,0.28037,0.30927,0.43161000000000005,0.46646000000000004,0.57948,0.54861,0.54399,0.69965,0.66397,0.6853600000000001,0.6832,0.6855,0.55584,0.59246,0.6672600000000001,0.54393,0.57008,0.47186999999999996,0.37182,0.4441,0.34258,0.43233999999999995,0.31974,0.31629,0.33436,0.34391,0.37506999999999996,0.31914000000000003,0.33587,0.22578,0.29503,0.34745,0.46313000000000004,0.6896899999999999,0.9301799999999999,1.0782,1.1837,1.3424,1.5624,1.7695,1.6768,1.7319,1.6582,1.3781,1.2026,1.0799,0.71086,0.34855,0.055673,-0.18165,-0.20215,-0.17290999999999998,-0.30301,-0.26713000000000003,-0.21713000000000002,-0.21381,-0.18369000000000002,-0.22089,-0.15300999999999998,-0.18370999999999998,-0.22036999999999998,-0.18497,-0.24325,-0.1608,-0.059414,0.20467,0.7992,0.8504,0.80087,1.0861,1.0905,0.8985299999999999,0.8602799999999999,1.5366,1.8526,0.6181,-2.1055
2,0.90055,0.5362,-0.15606,-0.7973,-1.6689,-2.6403,-2.9963,-2.9398,-2.4955,-1.9932,-1.6447,-1.345,-1.2221,-0.9797600000000001,-0.52252,-0.18769,-0.099812,-0.14426,-0.13647,-0.15482,-0.26361,-0.26885,-0.26022,-0.18941,-0.11032,-0.1533,-0.15014,-0.25461999999999996,-0.18120999999999998,-0.13187000000000001,-0.16960999999999998,-0.13815,-0.23304,-0.24170999999999998,-0.22566,-0.25453000000000003,-0.15627,-0.18596,-0.30508,-0.36425,-0.40871,-0.38045,-0.36445,-0.43776000000000004,-0.36459,-0.27598,-0.34931999999999996,-0.49649,-0.46979,-0.47708999999999996,-0.62852,-0.56209,-0.63794,-0.68412,-0.73254,-0.67948,-0.7237,-0.78474,-0.74485,-0.78991,-0.76662,-0.8183699999999999,-0.88664,-0.8603200000000001,-0.8209700000000001,-0.79671,-0.83145,-0.85954,-0.8549200000000001,-0.79893,-0.76861,-0.77793,-0.76963,-0.70498,-0.6107600000000001,-0.5524,-0.45125,-0.41068999999999994,-0.41453999999999996,-0.35073000000000004,-0.20240999999999998,-0.095275,-0.13806,-0.028948,-0.008893799999999999,-0.092424,0.036231,0.088013,0.18289,0.23338000000000003,0.16867000000000001,0.19832,0.12483,0.2192,0.26918000000000003,0.33305,0.33134,0.2893,0.38237,0.35927,0.38996,0.40854,0.44892,0.40821999999999997,0.4693,0.54276,0.50656,0.58117,0.69084,0.66914,0.7191,0.74226,0.74041,0.79223,0.75073,0.87305,0.91261,0.8023600000000001,0.8396100000000001,0.95673,0.9429799999999999,1.0047,1.195,1.3214,1.7471,2.1943,2.1282,1.9727,1.7956,1.5926,1.5024,1.7421,2.3114,2.9124,2.6168,1.9346,1.5465,1.5021,1.2817,0.8848600000000001
4,0.32003000000000004,-1.0007,-2.6516,-4.2216,-4.649,-4.0051,-2.8628,-1.9825,-1.7463,-1.1132,-0.38053000000000003,-0.32247,-0.37833,-0.29791,-0.39107,-0.37825,-0.25183,-0.31513,-0.30032,-0.34284000000000003,-0.40569,-0.38427,-0.36139,-0.45848,-0.51488,-0.5455899999999999,-0.54656,-0.5805899999999999,-0.6097100000000001,-0.60233,-0.67252,-0.75708,-0.76368,-0.78492,-0.90246,-0.8527399999999999,-0.83639,-0.8706799999999999,-0.8012100000000001,-0.7196600000000001,-0.70887,-0.65355,-0.53155,-0.39371999999999996,-0.31759,-0.26992,-0.17654,-0.11632,-0.070594,0.0091396,0.050631,-0.0044488999999999996,0.026307,-0.0014573000000000001,0.046939,0.032155,0.016184999999999998,0.01115,0.055633,0.079135,0.10865999999999999,0.20558,0.23026,0.24722,0.25999,0.31299,0.304,0.34691,0.37567,0.43125,0.53905,0.47935,0.64168,0.63741,0.6399,0.64226,0.67066,0.70499,0.61027,0.63812,0.60396,0.54961,0.57153,0.40455,0.44926000000000005,0.49078,0.3662,0.40375,0.34624,0.35979,0.36845,0.27392,0.33668000000000003,0.40437,0.32574000000000003,0.37027,0.48993000000000003,0.73954,0.9406200000000001,1.0107,1.0217,1.2764,1.4677,1.5607,1.5512,1.5541,1.3383,1.1757,1.0232,0.872,0.62258,0.35714,0.055334,-0.16107,-0.17034000000000002,-0.14908,-0.22871,-0.19726,-0.1948,-0.20656999999999998,-0.19272999999999998,-0.12541,-0.11558,-0.09222999999999999,-0.18024,-0.097103,-0.085784,-0.1513,0.10314000000000001,0.56435,1.0756,1.1516,1.3791,1.7798,1.9134,1.4992,1.2031,1.4073,1.2163,-0.49323999999999996
5,-0.23412,-1.5361,-2.5379,-3.2025,-3.3324,-2.9581,-2.5567,-1.9340000000000002,-1.3113,-1.0068,-0.97034,-0.57415,-0.020645,0.10865,0.070168,0.09381,0.11767000000000001,0.11097,0.16419,0.038942000000000004,0.13283,0.06755599999999999,0.09664400000000001,0.096852,0.065715,0.071649,0.029036000000000003,0.13004000000000002,0.096749,-0.0061062,0.060329999999999995,0.015328,0.016802,0.0017912,-0.008000499999999999,-0.017693,-0.09155,-0.13402,-0.11142,-0.18485,-0.24969,-0.19999,-0.23513,-0.20536999999999997,-0.23185,-0.2406,-0.22145,-0.23284000000000002,-0.18772,-0.18633,-0.13329000000000002,-0.14193,-0.073522,-0.11489,-0.016071000000000002,0.11984000000000002,0.07558200000000001,0.11525999999999999,0.15838,0.20609,0.36923,0.31838,0.38305,0.42911000000000005,0.41156000000000004,0.40460999999999997,0.45365,0.45708999999999994,0.43817,0.43648000000000003,0.39973000000000003,0.47653,0.45025,0.4201,0.45791000000000004,0.43168,0.47171,0.49183000000000004,0.50134,0.47281000000000006,0.47494,0.51754,0.48022,0.52083,0.5406,0.57818,0.62236,0.70634,0.64282,0.6951,0.8044100000000001,0.7828,0.80284,0.78467,0.8029999999999999,0.84593,0.8563700000000001,0.82278,0.87159,0.86908,0.81601,0.89823,0.9202600000000001,0.8409399999999999,0.8842399999999999,0.85244,0.8628600000000001,0.8587100000000001,0.78298,0.8114899999999999,0.79647,0.6762699999999999,0.7265,0.7264,0.628,0.6854600000000001,0.66777,0.63289,0.60106,0.48983000000000004,0.34209,0.131,0.15286,0.1457,0.14723,0.14002,5.1801e-05,-0.047923,0.079512,0.42132,0.78946,0.76158,0.27134,-0.61214,-1.2673,-1.9123,-3.1073,-4.1144,-3.988,-3.0508
5,1.1156,0.73754,0.22435,-0.29661,-0.5244,-0.8367700000000001,-1.1054,-1.2542,-1.3669,-1.3274,-1.1279,-0.80897,-0.5052800000000001,-0.32804,-0.27666,-0.27437,-0.13978,0.18072,0.47862,0.56042,0.5479,0.58611,0.51958,0.43742,0.51148,0.52851,0.49991,0.53714,0.5586800000000001,0.5765,0.5503600000000001,0.47747,0.47923000000000004,0.508,0.46024,0.42258,0.45223,0.47258,0.47317,0.45741000000000004,0.4141,0.40676999999999996,0.41946000000000006,0.4042,0.41425,0.41713,0.40108,0.38788,0.35349,0.36509,0.35543,0.31464000000000003,0.34476,0.35508,0.34976,0.32095999999999997,0.29764,0.3229,0.27875,0.31572,0.3419,0.26453000000000004,0.30915,0.27384000000000003,0.23708,0.29874,0.21247,0.18211,0.24413,0.26899999999999996,0.26283,0.22601,0.262,0.23679,0.19666,0.24466999999999997,0.21648,0.24497,0.27871999999999997,0.22587,0.25516,0.27707,0.30656,0.3579,0.33244,0.35989,0.46443,0.52149,0.47698,0.43572,0.48748,0.52288,0.53075,0.56176,0.57613,0.5787899999999999,0.57327,0.58505,0.62829,0.6349600000000001,0.62026,0.6454,0.6625300000000001,0.61695,0.57501,0.60092,0.64208,0.66575,0.6952,0.68893,0.6359,0.63564,0.62829,0.56829,0.54843,0.44728,0.34092,0.30534,0.21036999999999997,0.2121,0.14125,-0.0633,-0.11112000000000001,-0.23035,-0.47689,-0.67193,-0.83355,-0.90709,-0.9895,-1.226,-1.7026,-2.2824,-2.8023,-3.3282,-3.5595,-4.0451,-4.3295,-3.6658,-3.3763,-1.4004
1,-0.30196999999999996,-1.1034,-1.2578,-1.4952,-1.4395,-1.1115,-0.68779,-0.43896,-0.46561,-0.16295,0.12225,0.062666,0.067117,0.059267999999999994,0.071739,0.08379600000000001,0.057445,0.054949,0.079389,0.049341,0.078376,0.07573099999999999,0.07142899999999999,0.07565,0.016428,0.022982,0.034985,0.019369,0.023886,0.011536,-0.012366,0.017011000000000002,-0.036268,-0.028627,-0.059775999999999996,-0.070741,-0.052847000000000005,-0.1151,-0.095846,-0.090861,-0.13199,-0.11872,-0.13114,-0.10259000000000001,-0.091839,-0.12457,-0.092111,-0.060164999999999996,-0.030039,0.0072265,0.0051340000000000005,0.028782,0.094713,0.10983,0.09147000000000001,0.12638,0.16751,0.15598,0.18797,0.19308,0.16667,0.19088,0.22019,0.24125,0.22248,0.25155,0.26041,0.24931999999999999,0.26941,0.30027,0.27052,0.24314000000000002,0.29894,0.30514,0.31473,0.33498,0.33568000000000003,0.34386,0.34957,0.41268999999999995,0.38235,0.38304,0.39547,0.38119000000000003,0.36471,0.4183,0.38761,0.37355,0.43378999999999995,0.37963,0.39760999999999996,0.38915,0.34941,0.35982,0.37269,0.3788,0.39603,0.33189,0.32754,0.35709,0.34754,0.38438,0.35343,0.36202,0.32337,0.31989,0.37246,0.33846,0.3006,0.32329,0.32477,0.3247,0.31406999999999996,0.34939000000000003,0.39932,0.5028,0.6030800000000001,0.65945,0.7549,0.805,0.85805,0.98045,1.0691,1.0809,1.0987,1.1952,1.3211,1.3417,1.0913,0.80306,0.48893000000000003,0.16102,-0.34028,-1.148,-1.9364,-2.8507,-3.5819,-4.649,-5.202999999999999,-5.7976
4,-2.6528,-3.7068,-3.977,-3.7676,-3.193,-2.3511,-1.2618,-1.119,-0.6847300000000001,-0.28317,-0.3425,-0.2907,-0.30956999999999996,-0.28799,-0.22428,-0.13348,-0.15791,-0.16402,-0.24978000000000003,-0.18101,-0.024832,-0.10247,-0.080807,-0.07826799999999999,-0.13632,-0.084078,-0.14279,-0.10132000000000001,-0.12328,-0.10181,-0.13225,-0.19724,-0.20675,-0.046532,-0.059178999999999995,-0.17735,-0.18022,-0.030713999999999998,-0.056322000000000004,-0.11963,-0.054925999999999996,-0.005065,0.02327,0.10428,0.12934,0.16710999999999998,0.14434,0.055183,0.22891,0.24928000000000003,0.22893000000000002,0.24916,0.23676,0.18100000000000002,0.28476999999999997,0.1802,0.050874,0.15471,0.071965,0.18093,0.12772,0.20806,0.19428,0.17113,0.18919,0.23734,0.24561,0.23893000000000003,0.26178,0.2017,0.3356,0.31968,0.38754,0.38223,0.40128,0.48065,0.5877899999999999,0.42188000000000003,0.37561,0.5795399999999999,0.58638,0.5756,0.49385,0.4784,0.48563,0.49773,0.5211399999999999,0.50093,0.47743,0.64048,0.6150899999999999,0.87446,1.0503,1.1289,1.3509,1.5706,1.8364,1.9297,1.9849,2.0194,1.8278,1.5717,1.5535,1.3774,1.1347,0.77288,0.55132,0.27049,0.019744,-0.062029999999999995,-0.08192100000000001,-0.16595,-0.14602,-0.1846,-0.073185,0.042022000000000004,-0.13912,-0.10959,-0.004335800000000001,-0.029657,-0.10049,-0.07716100000000001,-0.0040912,0.088258,0.15217999999999998,0.20945999999999998,0.79227,1.1889,1.1271,0.59255,-0.20426,-1.0975,-1.5498,-1.5816,-1.1957,-0.8044,-0.6179100000000001,-1.3184,-2.1358,-2.895
4,0.61603,0.31351,-1.525,-2.7886,-3.5284,-3.6004,-2.5961,-1.9288,-1.4122,-0.49108,-0.30061,-0.45374,-0.36238000000000004,-0.36765,-0.36371,-0.3259,-0.35166,-0.3783,-0.41553999999999996,-0.53872,-0.53996,-0.55295,-0.6782600000000001,-0.60107,-0.741,-0.8551200000000001,-0.9369,-0.97539,-0.97285,-1.0811,-1.1108,-1.16,-1.2651,-1.3396,-1.4353,-1.4141,-1.3526,-1.304,-1.3349,-1.3045,-1.2262,-1.1840000000000002,-1.0059,-0.8874299999999999,-0.79727,-0.56233,-0.58012,-0.48239,-0.35896,-0.33949,-0.28438,-0.10253,-0.15509,0.022445,0.048054,0.0031195999999999997,0.12279000000000001,0.23167,0.25735,0.29453,0.24335,0.41083000000000003,0.47698999999999997,0.5626899999999999,0.76751,0.72316,0.8251799999999999,0.88874,0.9666,0.8890100000000001,0.8860399999999999,0.9956799999999999,1.0977,1.0992,1.0595,0.9728100000000001,0.99461,0.88549,0.9283600000000001,0.9699700000000001,0.7712399999999999,0.7416,0.78567,0.7057,0.644,0.54409,0.58621,0.48234,0.52325,0.40352,0.40765,0.5109,0.41745,0.40599,0.34442,0.36784,0.32583,0.26566,0.3112,0.27014,0.27987,0.42416000000000004,0.47313,0.67908,0.9515299999999999,1.1424,1.2948,1.5332,1.807,2.1102,2.124,1.9465,1.7147,1.6746,1.2793,0.9215,0.18866,-0.16677,-0.17447000000000001,-0.28523000000000004,-0.24886,-0.38795999999999997,-0.32416999999999996,-0.28844000000000003,-0.31942,-0.37335999999999997,-0.28614,-0.26791,-0.33478,-0.22575,-0.16216,-0.055182,0.54567,1.2927,0.8360700000000001,1.1088,1.0568,0.45059,-0.095226,0.44317
5,0.95324,0.77127,0.30105,-0.49906000000000006,-0.85265,-1.1837,-1.6162,-1.8541,-1.8363,-1.5854,-1.1718,-0.81657,-0.50372,-0.41443,-0.33109,-0.0077352,0.44585,0.5502,0.48556000000000005,0.46952,0.45863999999999994,0.44978,0.44255,0.45165,0.38938,0.41765,0.47562,0.48012,0.47145,0.51364,0.49885,0.45882,0.46416999999999997,0.49618999999999996,0.52007,0.45338,0.38731,0.34825,0.33235,0.37278,0.37232,0.35814,0.23795,0.28734,0.27665,0.23635,0.30709000000000003,0.21288,0.19444,0.17747000000000002,0.12437000000000001,0.14537,0.091502,0.057215999999999996,0.089752,0.041898000000000005,0.0062564,-0.0014732,0.0095453,-0.016361,-0.035927999999999995,-0.022057,-0.067214,-0.105,-0.10497999999999999,-0.040286,-0.09412899999999999,-0.063551,-0.033710000000000004,-0.093067,-0.043367,-0.012833,0.02264,0.076042,0.14685,0.23224,0.20726999999999998,0.26445,0.34552,0.40266,0.44055,0.40048,0.3699,0.49262,0.53274,0.49681000000000003,0.52215,0.49236,0.47655,0.49812,0.6137199999999999,0.65082,0.59244,0.56408,0.55887,0.5692699999999999,0.59965,0.62936,0.58104,0.60409,0.71617,0.7008800000000001,0.62325,0.5766600000000001,0.6551600000000001,0.6482600000000001,0.6877800000000001,0.76926,0.7479399999999999,0.71641,0.74205,0.73663,0.73663,0.78962,0.7674,0.846,0.87859,0.7874,0.74231,0.71967,0.46786000000000005,0.363,0.40674,0.38550999999999996,0.21627,-0.088906,-0.31886,-0.6272399999999999,-0.87164,-1.1403,-1.1562,-1.3453,-1.7759,-2.0925,-2.8118,-3.1411,-3.9596,-4.2033,-4.6629,-3.2946
4,-0.35068,-1.7977,-3.3826,-4.5848,-4.3986,-3.582,-2.5066,-1.8366,-1.7168,-0.95381,-0.57886,-0.5116,-0.57015,-0.56512,-0.5191899999999999,-0.51503,-0.4857,-0.46125,-0.52987,-0.5020899999999999,-0.5039399999999999,-0.5825899999999999,-0.53999,-0.58003,-0.6409,-0.6662600000000001,-0.6364,-0.69643,-0.76463,-0.75732,-0.8760100000000001,-0.78071,-0.8409700000000001,-0.8639700000000001,-0.90485,-0.8750700000000001,-0.87531,-0.85682,-0.82391,-0.7778,-0.7357100000000001,-0.68567,-0.58204,-0.50469,-0.39283,-0.24433000000000002,-0.10692,-0.18961,-0.076632,-0.080898,-0.026652999999999996,-0.0017041,0.048254000000000005,0.043108999999999995,0.034276999999999995,0.099451,0.09350499999999999,0.033757,0.069351,0.049523000000000005,0.086327,0.13689,0.15852,0.24001999999999998,0.22451999999999997,0.31655,0.33892,0.35649000000000003,0.42923999999999995,0.46813,0.5081,0.62526,0.60855,0.67701,0.69387,0.76572,0.65978,0.76271,0.81389,0.68198,0.75169,0.62792,0.6774399999999999,0.65294,0.6609,0.57623,0.5825,0.57767,0.51176,0.57116,0.59633,0.5656,0.57508,0.48415,0.63242,0.65423,0.70967,0.90828,0.9266399999999999,1.0156,1.0065,1.0778,1.2385,1.3313,1.1743,0.9346899999999999,0.87055,0.76077,0.80615,0.7712100000000001,0.73248,0.54665,0.29352,0.17340999999999998,0.19268,0.10313,0.19879000000000002,0.11637,0.09932300000000001,0.091175,0.091558,0.12021,0.058149,0.090873,0.092659,0.10672000000000001,0.089518,0.22188000000000002,0.47746000000000005,0.9876799999999999,1.3365,1.2668,1.4435,1.6738,1.5503,1.1378,0.86361,0.70298,0.89039,-0.18288
5,-0.6691199999999999,-1.5426,-2.3344,-3.1105,-3.3856,-3.1487,-2.4942,-1.7821,-1.4448,-1.2549,-1.0235,-0.49137,-0.041319,-0.085753,-0.049362,0.006751999999999999,-0.021242,-0.095887,0.006442100000000001,0.0028459,-0.048217,-0.01662,-0.00088102,-0.017276,-0.12165,-0.099009,-0.11377999999999999,-0.025402,-0.057632,-0.1278,-0.029986000000000002,-0.022902000000000002,-0.079901,-0.2155,-0.18233,-0.15129,-0.13917000000000002,-0.19475,-0.16095,-0.27268000000000003,-0.26075,-0.32609,-0.34151,-0.34185,-0.33413000000000004,-0.32711,-0.3648,-0.33634000000000003,-0.38134,-0.42523999999999995,-0.43333999999999995,-0.31132,-0.37093000000000004,-0.38405,-0.30208,-0.23963,-0.2525,-0.18149,-0.074764,-0.082379,-0.09473,-0.036797,0.093834,0.11572,0.25551999999999997,0.27594,0.22626,0.30698000000000003,0.19448,0.38143,0.39226,0.38991,0.43349,0.43855,0.55186,0.53165,0.50356,0.5773,0.58107,0.6320100000000001,0.66152,0.59351,0.5866399999999999,0.63034,0.65137,0.70355,0.63447,0.6249899999999999,0.70097,0.62158,0.72145,0.76526,0.70263,0.79424,0.8401299999999999,0.8891600000000001,0.81172,0.81089,0.9344,0.9111,0.9514100000000001,0.95737,0.97445,1.0193,1.0851,1.0666,1.02,1.024,1.0445,1.0953,1.1031,1.1228,1.1402,1.087,1.0764,1.0774,1.0311,1.0349,1.062,1.0101,1.0088,0.8137800000000001,0.6958,0.49473,0.51657,0.5314399999999999,0.42558,0.19599,0.073184,-0.11258,-0.27476999999999996,-0.149,-0.30163,-0.5008199999999999,-0.90646,-1.4841,-1.9889,-2.5909,-3.4876,-4.1739
4,-1.3025,-3.6123,-4.2183,-4.4254,-3.7971,-2.9645,-1.7816,-1.534,-1.1585,-0.32942,-0.32392,-0.31085999999999997,-0.25578,-0.28369,-0.25365,-0.22745,-0.2184,-0.29573,-0.33589,-0.28924,-0.34726999999999997,-0.30833,-0.25383,-0.2946,-0.27639,-0.37528,-0.45743999999999996,-0.45782,-0.45876000000000006,-0.41031999999999996,-0.5021,-0.57808,-0.68077,-0.6696,-0.68104,-0.76779,-0.6418,-0.7006399999999999,-0.7086600000000001,-0.6613600000000001,-0.7044100000000001,-0.66492,-0.63602,-0.56238,-0.46233,-0.43906999999999996,-0.47397,-0.33319,-0.19842,-0.20749,-0.21111,-0.061798,-0.015756,-0.066161,-0.1,-0.05896900000000001,-0.052943,0.0023940999999999997,0.15364,0.15219000000000002,0.1695,0.20223,0.25515,0.26095,0.22903,0.39621999999999996,0.43081,0.43088000000000004,0.52465,0.5316,0.70033,0.70415,0.72802,0.80505,0.77223,0.7996,0.76267,0.8332200000000001,0.8483,0.76764,0.79459,0.66988,0.6249600000000001,0.73407,0.65509,0.63613,0.62575,0.63061,0.58531,0.5562699999999999,0.51518,0.59117,0.46576999999999996,0.47184,0.59143,0.6318699999999999,0.8651200000000001,0.99066,1.1813,1.2676,1.4232,1.4967,1.6873,1.6886,1.6857,1.6343,1.4387,1.2856,1.2894,0.9859,0.61741,0.21835,-0.11169000000000001,-0.077933,-0.15112,-0.19351,-0.2205,-0.24771999999999997,-0.20753000000000002,-0.25297,-0.18452000000000002,-0.22630999999999998,-0.18417999999999998,-0.15617999999999999,-0.18394000000000002,-0.1017,-0.28867,-0.18235,0.020521,0.34578000000000003,0.7237899999999999,0.73764,0.81421,0.72593,0.6429199999999999,0.55698,0.62402,0.8146899999999999,0.7223,-1.3549
