t_stamp,shap.name,shap.Class,shap.subseq,shap.score
0,0,0.0,0,0.0
10,4447450356215481808,1.0,"[ 0.613     0.53934   0.67974   0.59805   0.5599    0.51803   0.55874
  0.43255   0.4608    0.56034   0.53284   0.41778   0.50559   0.3863
  0.40434   0.464     0.40629   0.50318   0.42061   0.465     0.42977
  0.49708   0.49674   0.57921   0.97975   1.2233    1.28      1.3952
  1.6606    1.9279    1.9147    1.8015    1.6786    1.4401    1.274
  1.0705    0.66184   0.3534    0.036911 -0.14405  -0.1815   -0.11408
 -0.14381  -0.085822 -0.10484  -0.17324  -0.21514  -0.13869  -0.13822
 -0.15056  -0.11212  -0.10944  -0.074525  0.01459   0.20798   0.78341
  1.1792    1.1937    1.186     0.98719   0.68892   0.77437   0.82394 ]",0.6938699942202493
10,7832656574371253646,1.0,"[ 0.56034   0.53284   0.41778   0.50559   0.3863    0.40434   0.464
  0.40629   0.50318   0.42061   0.465     0.42977   0.49708   0.49674
  0.57921   0.97975   1.2233    1.28      1.3952    1.6606    1.9279
  1.9147    1.8015    1.6786    1.4401    1.274     1.0705    0.66184
  0.3534    0.036911 -0.14405  -0.1815   -0.11408  -0.14381  -0.085822
 -0.10484  -0.17324  -0.21514  -0.13869  -0.13822  -0.15056  -0.11212
 -0.10944  -0.074525  0.01459   0.20798   0.78341   1.1792    1.1937  ]",0.6749651639383042
10,1661486045545136987,1.0,"[ 0.41887  0.32594  0.35595  0.31694  0.23278  0.34233  0.43984  0.4218
  0.47839  0.22331  0.2984   0.4439   0.43982  0.7158   0.94287  1.0702
  0.99839  1.1303   1.4528   1.6699   1.6163   1.3437   1.1234   0.83784
  0.83842  0.71545  0.56505  0.24295 -0.11339 -0.23253 -0.27775 -0.22476
 -0.27232 -0.41553 -0.34502 -0.29844 -0.29279 -0.41429 -0.46138 -0.48242
 -0.48941 -0.49969 -0.31341 -0.28052 -0.24666  0.35095  1.0951   1.3904
  1.4122 ]",0.6690350431724921
10,-6511469581129517548,1.0,"[-0.37818  -0.22328  -0.34046  -0.46756  -0.26919  -0.26093  -0.32824
 -0.26778  -0.41087  -0.010633  0.46954   1.031     0.94632   0.7997
  0.47051   0.37472   0.12259   0.23883   0.34121  -0.11777  -0.5583
 -1.1026   -1.2563   -1.1823   -1.2108   -0.97312  -1.201    -1.2717
 -1.1749   -1.0787   -1.0606   -1.2793   -1.1854   -0.99547  -0.89017 ]",0.6572788957871585
10,715927639691360762,1.0,"[ 0.56034   0.53284   0.41778   0.50559   0.3863    0.40434   0.464
  0.40629   0.50318   0.42061   0.465     0.42977   0.49708   0.49674
  0.57921   0.97975   1.2233    1.28      1.3952    1.6606    1.9279
  1.9147    1.8015    1.6786    1.4401    1.274     1.0705    0.66184
  0.3534    0.036911 -0.14405  -0.1815   -0.11408  -0.14381  -0.085822
 -0.10484  -0.17324  -0.21514  -0.13869  -0.13822  -0.15056  -0.11212
 -0.10944  -0.074525  0.01459   0.20798   0.78341   1.1792    1.1937
  1.186     0.98719   0.68892   0.77437   0.82394   1.1172   -1.6405  ]",0.6510334341881658
10,-4430162410606912784,1.0,"[ 0.59914    0.59712    0.62974    0.62804    0.7602     0.99695
  1.0405     1.1534     1.2495     1.4372     1.7353     1.8684
  1.9493     1.9074     1.8881     1.6839     1.6035     1.431
  1.1941     1.005      0.71095    0.30725    0.053305   0.0055613
 -0.010828  -0.10821   -0.11301   -0.15382   -0.22032   -0.18798
 -0.13338   -0.095583  -0.076358  -0.070357  -0.12765  ]",0.6500870752665036
10,-4021141707946255463,1.0,"[ 0.56547  0.61787  0.73486  0.5158   0.53439  0.58824  0.53397  0.60996
  0.60312  0.41887  0.32594  0.35595  0.31694  0.23278  0.34233  0.43984
  0.4218   0.47839  0.22331  0.2984   0.4439   0.43982  0.7158   0.94287
  1.0702   0.99839  1.1303   1.4528   1.6699   1.6163   1.3437   1.1234
  0.83784  0.83842  0.71545  0.56505  0.24295 -0.11339 -0.23253 -0.27775
 -0.22476 -0.27232 -0.41553 -0.34502 -0.29844 -0.29279 -0.41429 -0.46138
 -0.48242 -0.48941 -0.49969 -0.31341 -0.28052 -0.24666  0.35095  1.0951
  1.3904   1.4122   1.3794   1.3878   0.69148  0.54173  0.98802]",0.6409674155333508
10,-5929643124894277842,1.0,"[ 0.0046144 -0.20377   -0.24665   -0.34642   -0.088971  -0.42669
 -0.37818   -0.22328   -0.34046   -0.46756   -0.26919   -0.26093
 -0.32824   -0.26778   -0.41087   -0.010633   0.46954    1.031
  0.94632    0.7997     0.47051    0.37472    0.12259    0.23883
  0.34121   -0.11777   -0.5583    -1.1026    -1.2563    -1.1823
 -1.2108    -0.97312   -1.201     -1.2717    -1.1749    -1.0787
 -1.0606    -1.2793    -1.1854    -0.99547   -0.89017   -0.10401  ]",0.6280984240003062
10,-7578138741266137956,1.0,"[ 0.41887  0.32594  0.35595  0.31694  0.23278  0.34233  0.43984  0.4218
  0.47839  0.22331  0.2984   0.4439   0.43982  0.7158   0.94287  1.0702
  0.99839  1.1303   1.4528   1.6699   1.6163   1.3437   1.1234   0.83784
  0.83842  0.71545  0.56505  0.24295 -0.11339 -0.23253 -0.27775 -0.22476
 -0.27232 -0.41553 -0.34502 -0.29844 -0.29279 -0.41429 -0.46138 -0.48242
 -0.48941 -0.49969 -0.31341 -0.28052 -0.24666  0.35095  1.0951   1.3904
  1.4122   1.3794   1.3878   0.69148  0.54173  0.98802  0.94278 -1.4709 ]",0.6079738888439719
10,5601410833848727594,1.0,"[ 0.57661    0.49595    0.53053    0.59289    0.49657    0.56167
  0.5017     0.43006    0.59914    0.59712    0.62974    0.62804
  0.7602     0.99695    1.0405     1.1534     1.2495     1.4372
  1.7353     1.8684     1.9493     1.9074     1.8881     1.6839
  1.6035     1.431      1.1941     1.005      0.71095    0.30725
  0.053305   0.0055613 -0.010828  -0.10821   -0.11301   -0.15382
 -0.22032   -0.18798   -0.13338   -0.095583  -0.076358  -0.070357 ]",0.6061234067156338
10,-5117733749761246981,2.0,"[ 0.57606    0.62016    0.67202    0.67614    0.66872    0.67706
  0.69045    0.67136    0.62061    0.63162    0.69045    0.67564
  0.61422    0.60209    0.63516    0.6569     0.64192    0.63726
  0.63516    0.60782    0.58182    0.5128     0.41403    0.38188
  0.3624     0.33728    0.35875    0.39591    0.36299    0.21228
  0.11918    0.11356   -0.0059556 -0.022287   0.082326  -0.073509
 -0.37167   -0.68286   -1.2261    -1.8398    -2.2403    -2.5631   ]",0.7587680089237919
10,-3915139049029445865,2.0,"[ 0.67202    0.62691    0.62784    0.69671    0.70888    0.62609
  0.57606    0.62016    0.67202    0.67614    0.66872    0.67706
  0.69045    0.67136    0.62061    0.63162    0.69045    0.67564
  0.61422    0.60209    0.63516    0.6569     0.64192    0.63726
  0.63516    0.60782    0.58182    0.5128     0.41403    0.38188
  0.3624     0.33728    0.35875    0.39591    0.36299    0.21228
  0.11918    0.11356   -0.0059556 -0.022287   0.082326  -0.073509
 -0.37167   -0.68286   -1.2261    -1.8398    -2.2403    -2.5631
 -3.0873   ]",0.7565412377094997
10,2595333910774797157,2.0,"[ 0.4463     0.3956     0.52829    0.62714    0.5778     0.56145
  0.58991    0.62214    0.66877    0.67202    0.62691    0.62784
  0.69671    0.70888    0.62609    0.57606    0.62016    0.67202
  0.67614    0.66872    0.67706    0.69045    0.67136    0.62061
  0.63162    0.69045    0.67564    0.61422    0.60209    0.63516
  0.6569     0.64192    0.63726    0.63516    0.60782    0.58182
  0.5128     0.41403    0.38188    0.3624     0.33728    0.35875
  0.39591    0.36299    0.21228    0.11918    0.11356   -0.0059556
 -0.022287   0.082326  -0.073509  -0.37167   -0.68286   -1.2261
 -1.8398    -2.2403    -2.5631    -3.0873    -3.5663    -3.5528
 -3.1237    -2.258     -1.3006   ]",0.7474873346290253
10,4054524635749776946,2.0,"[ 0.69045    0.67136    0.62061    0.63162    0.69045    0.67564
  0.61422    0.60209    0.63516    0.6569     0.64192    0.63726
  0.63516    0.60782    0.58182    0.5128     0.41403    0.38188
  0.3624     0.33728    0.35875    0.39591    0.36299    0.21228
  0.11918    0.11356   -0.0059556 -0.022287   0.082326  -0.073509
 -0.37167   -0.68286   -1.2261    -1.8398    -2.2403   ]",0.7241187547467418
10,8905473104742868822,2.0,"[ 0.1706    0.2836    0.29282   0.23934   0.27004   0.41191   0.47252
  0.56538   0.67352   0.67498   0.67735   0.66461   0.64768   0.7264
  0.7381    0.65322   0.69924   0.78983   0.79305   0.77071   0.77388
  0.83018   0.88794   0.88629   0.83689   0.8704    0.98117   0.9616
  0.9073    1.0017    1.0876    1.0214    0.9265    0.9495    1.0298
  0.96693   0.88204   1.0083    1.0531    0.86633   0.70148   0.61541
  0.64213   0.75269   0.65098   0.38778   0.19473   0.029333 -0.051944
 -0.22389  -0.33616  -0.087426 -0.15155  -0.6436   -1.0518   -1.4462
 -2.0075   -2.6636   -3.222    -3.6006   -3.7387   -3.0729   -1.6729  ]",0.6942704342323814
10,-8637952601597701721,2.0,"[ 0.49359  0.54863  0.57976  0.50401  0.49883  0.49105  0.54821  0.52401
  0.47375  0.47073  0.46177  0.56359  0.54539  0.59011  0.67866  0.61267
  0.5861   0.61383  0.68664  0.6863   0.67604  0.75445  0.71449  0.73888
  0.75183  0.78996  0.79352  0.71717  0.7952   0.803    0.78673  0.77161
  0.69158  0.59685  0.45297  0.4531   0.50997  0.53807  0.56183  0.49884
  0.51574  0.46179  0.47512  0.4314   0.24814 -0.16616 -0.81866 -1.4656
 -2.109   -2.8533  -3.8559  -4.3444  -4.2361  -3.1465  -2.3519  -1.5933 ]",0.6873095817760468
10,-1985809059698387480,2.0,"[ 0.52649  0.50031  0.56327  0.51326  0.40011  0.43384  0.49612  0.4498
  0.48928  0.49359  0.54863  0.57976  0.50401  0.49883  0.49105  0.54821
  0.52401  0.47375  0.47073  0.46177  0.56359  0.54539  0.59011  0.67866
  0.61267  0.5861   0.61383  0.68664  0.6863   0.67604  0.75445  0.71449
  0.73888  0.75183  0.78996  0.79352  0.71717  0.7952   0.803    0.78673
  0.77161  0.69158  0.59685  0.45297  0.4531   0.50997  0.53807  0.56183
  0.49884  0.51574  0.46179  0.47512  0.4314   0.24814 -0.16616 -0.81866
 -1.4656  -2.109   -2.8533  -3.8559  -4.3444  -4.2361  -3.1465 ]",0.6868933536698201
10,-1137721973760315166,2.0,"[ 0.39235    0.41191    0.36565    0.41141    0.43907    0.44802
  0.46017    0.33411    0.36855    0.46857    0.38357    0.29125
  0.2456     0.28872    0.38124    0.34059    0.21886    0.17183
  0.18664    0.19968    0.15549    0.098202   0.11873    0.09983
  0.0092716  0.018079   0.074071   0.041476   0.0048336  0.0098721
  0.035175   0.025809  -0.086481  -0.16789   -0.14743   -0.15352
 -0.2879    -0.3917    -0.29109   -0.22723   -0.26909   -0.23963
 -0.19863   -0.14066   -0.04843   -0.023716  -0.070716  -0.047258
  0.053158 ]",0.6666481391890671
10,1291528629095731654,2.0,"[ 0.67604  0.75445  0.71449  0.73888  0.75183  0.78996  0.79352  0.71717
  0.7952   0.803    0.78673  0.77161  0.69158  0.59685  0.45297  0.4531
  0.50997  0.53807  0.56183  0.49884  0.51574  0.46179  0.47512  0.4314
  0.24814 -0.16616 -0.81866 -1.4656  -2.109   -2.8533  -3.8559  -4.3444
 -4.2361  -3.1465  -2.3519 ]",0.6542154592218227
10,-2866692382193325580,2.0,"[ 0.43907    0.44802    0.46017    0.33411    0.36855    0.46857
  0.38357    0.29125    0.2456     0.28872    0.38124    0.34059
  0.21886    0.17183    0.18664    0.19968    0.15549    0.098202
  0.11873    0.09983    0.0092716  0.018079   0.074071   0.041476
  0.0048336  0.0098721  0.035175   0.025809  -0.086481  -0.16789
 -0.14743   -0.15352   -0.2879    -0.3917    -0.29109   -0.22723
 -0.26909   -0.23963   -0.19863   -0.14066   -0.04843   -0.023716
 -0.070716  -0.047258   0.053158   0.011651  -0.0021963  0.1706
  0.2836     0.29282    0.23934    0.27004    0.41191    0.47252
  0.56538    0.67352  ]",0.6157540995199107
35,4447450356215481808,1.0,"[ 0.613     0.53934   0.67974   0.59805   0.5599    0.51803   0.55874
  0.43255   0.4608    0.56034   0.53284   0.41778   0.50559   0.3863
  0.40434   0.464     0.40629   0.50318   0.42061   0.465     0.42977
  0.49708   0.49674   0.57921   0.97975   1.2233    1.28      1.3952
  1.6606    1.9279    1.9147    1.8015    1.6786    1.4401    1.274
  1.0705    0.66184   0.3534    0.036911 -0.14405  -0.1815   -0.11408
 -0.14381  -0.085822 -0.10484  -0.17324  -0.21514  -0.13869  -0.13822
 -0.15056  -0.11212  -0.10944  -0.074525  0.01459   0.20798   0.78341
  1.1792    1.1937    1.186     0.98719   0.68892   0.77437   0.82394 ]",0.7097691672519871
35,7832656574371253646,1.0,"[ 0.56034   0.53284   0.41778   0.50559   0.3863    0.40434   0.464
  0.40629   0.50318   0.42061   0.465     0.42977   0.49708   0.49674
  0.57921   0.97975   1.2233    1.28      1.3952    1.6606    1.9279
  1.9147    1.8015    1.6786    1.4401    1.274     1.0705    0.66184
  0.3534    0.036911 -0.14405  -0.1815   -0.11408  -0.14381  -0.085822
 -0.10484  -0.17324  -0.21514  -0.13869  -0.13822  -0.15056  -0.11212
 -0.10944  -0.074525  0.01459   0.20798   0.78341   1.1792    1.1937  ]",0.6706238842181735
35,1661486045545136987,1.0,"[ 0.41887  0.32594  0.35595  0.31694  0.23278  0.34233  0.43984  0.4218
  0.47839  0.22331  0.2984   0.4439   0.43982  0.7158   0.94287  1.0702
  0.99839  1.1303   1.4528   1.6699   1.6163   1.3437   1.1234   0.83784
  0.83842  0.71545  0.56505  0.24295 -0.11339 -0.23253 -0.27775 -0.22476
 -0.27232 -0.41553 -0.34502 -0.29844 -0.29279 -0.41429 -0.46138 -0.48242
 -0.48941 -0.49969 -0.31341 -0.28052 -0.24666  0.35095  1.0951   1.3904
  1.4122 ]",0.6320744653477348
35,715927639691360762,1.0,"[ 0.56034   0.53284   0.41778   0.50559   0.3863    0.40434   0.464
  0.40629   0.50318   0.42061   0.465     0.42977   0.49708   0.49674
  0.57921   0.97975   1.2233    1.28      1.3952    1.6606    1.9279
  1.9147    1.8015    1.6786    1.4401    1.274     1.0705    0.66184
  0.3534    0.036911 -0.14405  -0.1815   -0.11408  -0.14381  -0.085822
 -0.10484  -0.17324  -0.21514  -0.13869  -0.13822  -0.15056  -0.11212
 -0.10944  -0.074525  0.01459   0.20798   0.78341   1.1792    1.1937
  1.186     0.98719   0.68892   0.77437   0.82394   1.1172   -1.6405  ]",0.6210163334764268
35,-4021141707946255463,1.0,"[ 0.56547  0.61787  0.73486  0.5158   0.53439  0.58824  0.53397  0.60996
  0.60312  0.41887  0.32594  0.35595  0.31694  0.23278  0.34233  0.43984
  0.4218   0.47839  0.22331  0.2984   0.4439   0.43982  0.7158   0.94287
  1.0702   0.99839  1.1303   1.4528   1.6699   1.6163   1.3437   1.1234
  0.83784  0.83842  0.71545  0.56505  0.24295 -0.11339 -0.23253 -0.27775
 -0.22476 -0.27232 -0.41553 -0.34502 -0.29844 -0.29279 -0.41429 -0.46138
 -0.48242 -0.48941 -0.49969 -0.31341 -0.28052 -0.24666  0.35095  1.0951
  1.3904   1.4122   1.3794   1.3878   0.69148  0.54173  0.98802]",0.6125319286723269
35,-8716274511662240106,1.0,"[ 0.016028  0.082502  0.25014   0.4153    0.5167    0.57008   0.52925
  0.62179   0.65385   0.68989   0.66759   0.76422   0.75545   0.61065
  0.53165   0.56035   0.48819   0.61982   0.68931   0.51892   0.50862
  0.5373    0.83562   1.0504    1.0521    1.0422    1.324     1.5726
  1.8367    2.1411    2.0525    1.9748    1.9915    1.7878    1.3902
  1.0999    0.82332   0.69379   0.37016   0.10351  -0.15146  -0.30923
 -0.32556  -0.29673  -0.42837  -0.27819  -0.31271  -0.36019  -0.33416
 -0.25913  -0.073196 -0.29171  -0.49869  -0.41436  -0.11854   0.33293 ]",0.6027411642641459
35,5662217585527453746,1.0,"[ 0.464     0.40629   0.50318   0.42061   0.465     0.42977   0.49708
  0.49674   0.57921   0.97975   1.2233    1.28      1.3952    1.6606
  1.9279    1.9147    1.8015    1.6786    1.4401    1.274     1.0705
  0.66184   0.3534    0.036911 -0.14405  -0.1815   -0.11408  -0.14381
 -0.085822 -0.10484  -0.17324  -0.21514  -0.13869  -0.13822  -0.15056
 -0.11212  -0.10944  -0.074525  0.01459   0.20798   0.78341   1.1792  ]",0.5953522201387609
35,4473731883565841567,1.0,"[ 0.53165   0.56035   0.48819   0.61982   0.68931   0.51892   0.50862
  0.5373    0.83562   1.0504    1.0521    1.0422    1.324     1.5726
  1.8367    2.1411    2.0525    1.9748    1.9915    1.7878    1.3902
  1.0999    0.82332   0.69379   0.37016   0.10351  -0.15146  -0.30923
 -0.32556  -0.29673  -0.42837  -0.27819  -0.31271  -0.36019  -0.33416
 -0.25913  -0.073196 -0.29171  -0.49869  -0.41436  -0.11854   0.33293 ]",0.5858357603238676
35,-7578138741266137956,1.0,"[ 0.41887  0.32594  0.35595  0.31694  0.23278  0.34233  0.43984  0.4218
  0.47839  0.22331  0.2984   0.4439   0.43982  0.7158   0.94287  1.0702
  0.99839  1.1303   1.4528   1.6699   1.6163   1.3437   1.1234   0.83784
  0.83842  0.71545  0.56505  0.24295 -0.11339 -0.23253 -0.27775 -0.22476
 -0.27232 -0.41553 -0.34502 -0.29844 -0.29279 -0.41429 -0.46138 -0.48242
 -0.48941 -0.49969 -0.31341 -0.28052 -0.24666  0.35095  1.0951   1.3904
  1.4122   1.3794   1.3878   0.69148  0.54173  0.98802  0.94278 -1.4709 ]",0.5806536926251364
35,-2483601638245213430,1.0,"[ 0.5167    0.57008   0.52925   0.62179   0.65385   0.68989   0.66759
  0.76422   0.75545   0.61065   0.53165   0.56035   0.48819   0.61982
  0.68931   0.51892   0.50862   0.5373    0.83562   1.0504    1.0521
  1.0422    1.324     1.5726    1.8367    2.1411    2.0525    1.9748
  1.9915    1.7878    1.3902    1.0999    0.82332   0.69379   0.37016
  0.10351  -0.15146  -0.30923  -0.32556  -0.29673  -0.42837  -0.27819
 -0.31271  -0.36019  -0.33416  -0.25913  -0.073196 -0.29171  -0.49869
 -0.41436  -0.11854   0.33293   0.86439   1.1097    0.88892   0.93934
  0.99555   0.80676   0.51316   0.1059    0.47616   0.68152  -0.16726 ]",0.5731734333063824
35,-5117733749761246981,2.0,"[ 0.57606    0.62016    0.67202    0.67614    0.66872    0.67706
  0.69045    0.67136    0.62061    0.63162    0.69045    0.67564
  0.61422    0.60209    0.63516    0.6569     0.64192    0.63726
  0.63516    0.60782    0.58182    0.5128     0.41403    0.38188
  0.3624     0.33728    0.35875    0.39591    0.36299    0.21228
  0.11918    0.11356   -0.0059556 -0.022287   0.082326  -0.073509
 -0.37167   -0.68286   -1.2261    -1.8398    -2.2403    -2.5631   ]",0.6425407175989521
35,-3915139049029445865,2.0,"[ 0.67202    0.62691    0.62784    0.69671    0.70888    0.62609
  0.57606    0.62016    0.67202    0.67614    0.66872    0.67706
  0.69045    0.67136    0.62061    0.63162    0.69045    0.67564
  0.61422    0.60209    0.63516    0.6569     0.64192    0.63726
  0.63516    0.60782    0.58182    0.5128     0.41403    0.38188
  0.3624     0.33728    0.35875    0.39591    0.36299    0.21228
  0.11918    0.11356   -0.0059556 -0.022287   0.082326  -0.073509
 -0.37167   -0.68286   -1.2261    -1.8398    -2.2403    -2.5631
 -3.0873   ]",0.639858917348373
35,6093080310287019648,2.0,"[ 0.18723   0.20302   0.32232   0.36222   0.45052   0.57678   0.53704
  0.52684   0.61418   0.59234   0.60938   0.66512   0.56674   0.58034
  0.70331   0.73658   0.74144   0.69478   0.71064   0.72825   0.66407
  0.71242   0.73477   0.66838   0.72099   0.76639   0.72263   0.78143
  0.79319   0.71146   0.79176   0.87734   0.87962   0.87756   0.87357
  0.91353   0.86159   0.84549   0.9262    0.8336    0.69781   0.60199
  0.57428   0.69601   0.70262   0.54773   0.38888   0.32788   0.2997
  0.13775   0.18406   0.47784   0.44531   0.082897 -0.28116  -0.75197
 -1.273    -1.7652   -2.429    -2.9454   -3.3052   -3.1752   -2.3114  ]",0.6266817251592891
35,4054524635749776946,2.0,"[ 0.69045    0.67136    0.62061    0.63162    0.69045    0.67564
  0.61422    0.60209    0.63516    0.6569     0.64192    0.63726
  0.63516    0.60782    0.58182    0.5128     0.41403    0.38188
  0.3624     0.33728    0.35875    0.39591    0.36299    0.21228
  0.11918    0.11356   -0.0059556 -0.022287   0.082326  -0.073509
 -0.37167   -0.68286   -1.2261    -1.8398    -2.2403   ]",0.6226354970298473
35,2595333910774797157,2.0,"[ 0.4463     0.3956     0.52829    0.62714    0.5778     0.56145
  0.58991    0.62214    0.66877    0.67202    0.62691    0.62784
  0.69671    0.70888    0.62609    0.57606    0.62016    0.67202
  0.67614    0.66872    0.67706    0.69045    0.67136    0.62061
  0.63162    0.69045    0.67564    0.61422    0.60209    0.63516
  0.6569     0.64192    0.63726    0.63516    0.60782    0.58182
  0.5128     0.41403    0.38188    0.3624     0.33728    0.35875
  0.39591    0.36299    0.21228    0.11918    0.11356   -0.0059556
 -0.022287   0.082326  -0.073509  -0.37167   -0.68286   -1.2261
 -1.8398    -2.2403    -2.5631    -3.0873    -3.5663    -3.5528
 -3.1237    -2.258     -1.3006   ]",0.6201453340186774
35,391949716194251637,2.0,"[ 0.59234   0.60938   0.66512   0.56674   0.58034   0.70331   0.73658
  0.74144   0.69478   0.71064   0.72825   0.66407   0.71242   0.73477
  0.66838   0.72099   0.76639   0.72263   0.78143   0.79319   0.71146
  0.79176   0.87734   0.87962   0.87756   0.87357   0.91353   0.86159
  0.84549   0.9262    0.8336    0.69781   0.60199   0.57428   0.69601
  0.70262   0.54773   0.38888   0.32788   0.2997    0.13775   0.18406
  0.47784   0.44531   0.082897 -0.28116  -0.75197  -1.273    -1.7652
 -2.429    -2.9454   -3.3052   -3.1752   -2.3114   -1.5974    0.048616]",0.6120492776780309
35,2924517439226381552,2.0,"[ 0.71146   0.79176   0.87734   0.87962   0.87756   0.87357   0.91353
  0.86159   0.84549   0.9262    0.8336    0.69781   0.60199   0.57428
  0.69601   0.70262   0.54773   0.38888   0.32788   0.2997    0.13775
  0.18406   0.47784   0.44531   0.082897 -0.28116  -0.75197  -1.273
 -1.7652   -2.429    -2.9454   -3.3052   -3.1752   -2.3114   -1.5974  ]",0.6092266352313923
35,8905473104742868822,2.0,"[ 0.1706    0.2836    0.29282   0.23934   0.27004   0.41191   0.47252
  0.56538   0.67352   0.67498   0.67735   0.66461   0.64768   0.7264
  0.7381    0.65322   0.69924   0.78983   0.79305   0.77071   0.77388
  0.83018   0.88794   0.88629   0.83689   0.8704    0.98117   0.9616
  0.9073    1.0017    1.0876    1.0214    0.9265    0.9495    1.0298
  0.96693   0.88204   1.0083    1.0531    0.86633   0.70148   0.61541
  0.64213   0.75269   0.65098   0.38778   0.19473   0.029333 -0.051944
 -0.22389  -0.33616  -0.087426 -0.15155  -0.6436   -1.0518   -1.4462
 -2.0075   -2.6636   -3.222    -3.6006   -3.7387   -3.0729   -1.6729  ]",0.6027963745868994
35,5342755680982551255,2.0,"[ 0.38255   0.43432   0.50228   0.46486   0.48777   0.50818   0.51848
  0.58483   0.58301   0.60661   0.66843   0.62981   0.59085   0.63353
  0.64319   0.60182   0.62748   0.68975   0.64866   0.62257   0.67918
  0.68448   0.66976   0.66921   0.64791   0.68783   0.74642   0.74715
  0.72966   0.76205   0.79441   0.77148   0.86291   0.98926   0.90029
  0.90933   0.98163   0.94048   1.0168    0.99817   0.97465   0.85498
  0.70582   0.71021   0.66921   0.70942   0.62971   0.46404   0.38569
  0.27878   0.23578   0.35621   0.57384   0.69653   0.47578  -0.054265
 -0.6656   -1.3203   -2.0226   -2.7236   -3.4205   -3.7437   -2.9587  ]",0.6017673236550409
35,-1145335281390603947,2.0,"[ 0.56462   0.60379   0.63621   0.70423   0.74295   0.71302   0.68097
  0.66055   0.64269   0.64942   0.61163   0.53083   0.57774   0.66312
  0.62054   0.62037   0.68819   0.67205   0.64791   0.64525   0.61743
  0.63524   0.65433   0.57725   0.52528   0.57458   0.58211   0.55663
  0.5349    0.43343   0.39966   0.46515   0.44562   0.40829   0.36122
  0.23517   0.14837   0.019924 -0.2356   -0.39503  -0.42307  -0.52649
 -0.74221  -1.0011   -1.3114   -1.7089   -2.156    -2.6405   -3.2184  ]",0.5842323016093861
35,-3334766757661851057,4.0,"[ 0.35845  0.43821  0.43717  0.48077  0.4304   0.49325  0.51105  0.49123
  0.50885  0.52996  0.57919  0.56379  0.59825  0.54057  0.5508   0.67129
  0.60801  0.57211  0.5352   0.50074  0.60807  0.57253  0.46568  0.47471
  0.54341  0.52343  0.44607  0.43865  0.5175   0.45032  0.46083  0.39997
  0.39352  0.48012  0.47504  0.52641  0.5996   0.61466  0.72917  0.79587
  0.90765  0.98425  1.0995   1.1841   1.3377   1.4643   1.325    1.2061
  1.1475   1.0949   1.0272   0.86076  0.52719  0.25879  0.14694  0.12699
 -0.17528 -0.64452 -1.2373  -1.839   -2.4359  -3.3907  -3.9941 ]",0.3106363466101318
35,-3917357533507062595,4.0,"[ 0.52996  0.57919  0.56379  0.59825  0.54057  0.5508   0.67129  0.60801
  0.57211  0.5352   0.50074  0.60807  0.57253  0.46568  0.47471  0.54341
  0.52343  0.44607  0.43865  0.5175   0.45032  0.46083  0.39997  0.39352
  0.48012  0.47504  0.52641  0.5996   0.61466  0.72917  0.79587  0.90765
  0.98425  1.0995   1.1841   1.3377   1.4643   1.325    1.2061   1.1475
  1.0949   1.0272   0.86076  0.52719  0.25879  0.14694  0.12699 -0.17528
 -0.64452 -1.2373  -1.839   -2.4359  -3.3907  -3.9941  -3.4906  -2.484  ]",0.30457598679152414
35,-2028039097275449255,4.0,"[ 0.24131   0.2388    0.37332   0.40005   0.31549   0.3703    0.46425
  0.5193    0.55024   0.47515   0.4348    0.50969   0.53086   0.57909
  0.63485   0.62828   0.63844   0.57647   0.60074   0.67721   0.58528
  0.53612   0.56574   0.56304   0.60121   0.64978   0.6668    0.68504
  0.64268   0.60888   0.64978   0.65323   0.66694   0.72262   0.77092
  0.82177   0.83057   0.7879    0.7275    0.65051   0.54229   0.43517
  0.37591   0.39108   0.48649   0.56379   0.47753   0.36292   0.39258
  0.24989   0.15532   0.45992   0.52577   0.28978   0.035831 -0.48964
 -1.1571   -1.7688   -2.5415   -3.1596   -3.8004   -3.9944   -3.1022  ]",0.3022612456375781
35,-7114109749624918171,4.0,"[ 0.60888   0.64978   0.65323   0.66694   0.72262   0.77092   0.82177
  0.83057   0.7879    0.7275    0.65051   0.54229   0.43517   0.37591
  0.39108   0.48649   0.56379   0.47753   0.36292   0.39258   0.24989
  0.15532   0.45992   0.52577   0.28978   0.035831 -0.48964  -1.1571
 -1.7688   -2.5415   -3.1596   -3.8004   -3.9944   -3.1022   -2.6673  ]",0.2631483992112235
35,2427345667977838479,4.0,"[ 0.45032  0.46083  0.39997  0.39352  0.48012  0.47504  0.52641  0.5996
  0.61466  0.72917  0.79587  0.90765  0.98425  1.0995   1.1841   1.3377
  1.4643   1.325    1.2061   1.1475   1.0949   1.0272   0.86076  0.52719
  0.25879  0.14694  0.12699 -0.17528 -0.64452 -1.2373  -1.839   -2.4359
 -3.3907  -3.9941  -3.4906 ]",0.24409356522290634
35,3119736319766485656,4.0,"[0.37771  0.36212  0.34745  0.41931  0.47779  0.40865  0.3877   0.37553
 0.2871   0.28431  0.31379  0.26691  0.22667  0.19148  0.21981  0.30755
 0.2361   0.16013  0.21514  0.21981  0.18558  0.15361  0.12263  0.11122
 0.090821 0.073101 0.060884 0.043457 0.091671 0.17681  0.13957  0.059995
 0.11417  0.18802  0.17681  0.18806  0.23255  0.24954  0.26789  0.24131
 0.2388   0.37332  0.40005  0.31549  0.3703   0.46425  0.5193   0.55024
 0.47515 ]",0.2413335088339741
35,-6626260226697532641,4.0,"[0.67129 0.60801 0.57211 0.5352  0.50074 0.60807 0.57253 0.46568 0.47471
 0.54341 0.52343 0.44607 0.43865 0.5175  0.45032 0.46083 0.39997 0.39352
 0.48012 0.47504 0.52641]",0.22704212209651747
35,-1800932262389727934,4.0,"[ 0.61466  0.72917  0.79587  0.90765  0.98425  1.0995   1.1841   1.3377
  1.4643   1.325    1.2061   1.1475   1.0949   1.0272   0.86076  0.52719
  0.25879  0.14694  0.12699 -0.17528 -0.64452 -1.2373  -1.839   -2.4359
 -3.3907  -3.9941  -3.4906  -2.484  ]",0.20648211218453857
35,-1443461193876601918,4.0,"[0.28431 0.31379 0.26691 0.22667 0.19148 0.21981 0.30755 0.2361  0.16013
 0.21514 0.21981 0.18558 0.15361 0.12263]",0.20251545781757307
35,100698797251890889,4.0,"[ 0.47515   0.4348    0.50969   0.53086   0.57909   0.63485   0.62828
  0.63844   0.57647   0.60074   0.67721   0.58528   0.53612   0.56574
  0.56304   0.60121   0.64978   0.6668    0.68504   0.64268   0.60888
  0.64978   0.65323   0.66694   0.72262   0.77092   0.82177   0.83057
  0.7879    0.7275    0.65051   0.54229   0.43517   0.37591   0.39108
  0.48649   0.56379   0.47753   0.36292   0.39258   0.24989   0.15532
  0.45992   0.52577   0.28978   0.035831 -0.48964  -1.1571   -1.7688  ]",0.2000934722450791
55,-2592706657845840442,1.0,"[ 0.66439  0.60376  0.58133  0.5437   0.60798  0.575    0.58186  0.4533
  0.54875  0.46008  0.40378  0.43669  0.3032   0.52221  0.42012  0.40439
  0.42607  0.323    0.38253  0.37489  0.24601  0.37031  0.33646  0.31924
  0.2874   0.44056  0.56054  0.67259  0.98308  1.251    1.2321   1.6038
  2.0192   2.3689   2.4217   2.325    2.054    1.7484   1.4691   0.95481
  0.25551 -0.25678 -0.31246 -0.46308 -0.3581  -0.36193 -0.31974 -0.42845
 -0.29101 -0.41659 -0.45404 -0.37164 -0.36892 -0.29578 -0.46945 -0.32956
 -0.23513  0.57473  1.0586   0.88663  1.2658   0.89578 -0.01588]",0.6760972098545279
55,-126629559826546119,1.0,"[ 0.42751    0.33791    0.39377    0.31426    0.46302    0.35811
  0.30633    0.42741    0.36589    0.45021    0.47055    0.55274
  0.92625    1.1423     1.2735     1.4464     1.5737     1.9466
  2.2667     2.1761     2.0371     1.8584     1.7444     1.547
  1.2638     0.74393    0.19274   -0.0051231 -0.0045448 -0.0044781
 -0.13646    0.041175  -0.01151    0.056577   0.046861   0.044559
  0.081305   0.015736   0.11643    0.12444    0.17418    0.3812   ]",0.6091625870503216
55,7832656574371253646,1.0,"[ 0.56034   0.53284   0.41778   0.50559   0.3863    0.40434   0.464
  0.40629   0.50318   0.42061   0.465     0.42977   0.49708   0.49674
  0.57921   0.97975   1.2233    1.28      1.3952    1.6606    1.9279
  1.9147    1.8015    1.6786    1.4401    1.274     1.0705    0.66184
  0.3534    0.036911 -0.14405  -0.1815   -0.11408  -0.14381  -0.085822
 -0.10484  -0.17324  -0.21514  -0.13869  -0.13822  -0.15056  -0.11212
 -0.10944  -0.074525  0.01459   0.20798   0.78341   1.1792    1.1937  ]",0.6083409642733661
55,-570122814766687138,1.0,"[ 0.55623    0.51095    0.59078    0.55924    0.54987    0.48123
  0.47063    0.4402     0.3898     0.36795    0.37278    0.33109
  0.3864     0.34362    0.30252    0.42751    0.33791    0.39377
  0.31426    0.46302    0.35811    0.30633    0.42741    0.36589
  0.45021    0.47055    0.55274    0.92625    1.1423     1.2735
  1.4464     1.5737     1.9466     2.2667     2.1761     2.0371
  1.8584     1.7444     1.547      1.2638     0.74393    0.19274
 -0.0051231 -0.0045448 -0.0044781 -0.13646    0.041175  -0.01151
  0.056577   0.046861   0.044559   0.081305   0.015736   0.11643
  0.12444    0.17418    0.3812     1.0143     1.5735     1.264
  1.4922     1.6146     1.3943   ]",0.6049141298380775
55,-1537992777720823700,1.0,"[ 0.46008  0.40378  0.43669  0.3032   0.52221  0.42012  0.40439  0.42607
  0.323    0.38253  0.37489  0.24601  0.37031  0.33646  0.31924  0.2874
  0.44056  0.56054  0.67259  0.98308  1.251    1.2321   1.6038   2.0192
  2.3689   2.4217   2.325    2.054    1.7484   1.4691   0.95481  0.25551
 -0.25678 -0.31246 -0.46308 -0.3581  -0.36193 -0.31974 -0.42845 -0.29101
 -0.41659 -0.45404 -0.37164 -0.36892 -0.29578 -0.46945 -0.32956 -0.23513
  0.57473]",0.6027750814976354
55,-516146007358382236,1.0,"[0.39578 0.45112 0.45586 0.39294 0.35048 0.45891 0.40051 0.46104 0.61841
 0.84584 0.81393 1.1036  1.4205  1.5634  1.9818  2.158   2.2622  2.2698
 2.1455  1.7637  1.6027  1.3191  1.0151  0.64956 0.35753 0.21171 0.12964
 0.15774 0.21416 0.16284 0.31052 0.50732 0.51418 0.5551  0.53033 0.5873
 0.4868  0.4622  0.53689 0.61901 0.97591 1.8067 ]",0.5987688794715305
55,863294155201537606,1.0,"[ 0.36795    0.37278    0.33109    0.3864     0.34362    0.30252
  0.42751    0.33791    0.39377    0.31426    0.46302    0.35811
  0.30633    0.42741    0.36589    0.45021    0.47055    0.55274
  0.92625    1.1423     1.2735     1.4464     1.5737     1.9466
  2.2667     2.1761     2.0371     1.8584     1.7444     1.547
  1.2638     0.74393    0.19274   -0.0051231 -0.0045448 -0.0044781
 -0.13646    0.041175  -0.01151    0.056577   0.046861   0.044559
  0.081305   0.015736   0.11643    0.12444    0.17418    0.3812
  1.0143   ]",0.5986539643611083
55,4447450356215481808,1.0,"[ 0.613     0.53934   0.67974   0.59805   0.5599    0.51803   0.55874
  0.43255   0.4608    0.56034   0.53284   0.41778   0.50559   0.3863
  0.40434   0.464     0.40629   0.50318   0.42061   0.465     0.42977
  0.49708   0.49674   0.57921   0.97975   1.2233    1.28      1.3952
  1.6606    1.9279    1.9147    1.8015    1.6786    1.4401    1.274
  1.0705    0.66184   0.3534    0.036911 -0.14405  -0.1815   -0.11408
 -0.14381  -0.085822 -0.10484  -0.17324  -0.21514  -0.13869  -0.13822
 -0.15056  -0.11212  -0.10944  -0.074525  0.01459   0.20798   0.78341
  1.1792    1.1937    1.186     0.98719   0.68892   0.77437   0.82394 ]",0.5901158887572807
55,3196357102254434263,1.0,"[ 0.40439  0.42607  0.323    0.38253  0.37489  0.24601  0.37031  0.33646
  0.31924  0.2874   0.44056  0.56054  0.67259  0.98308  1.251    1.2321
  1.6038   2.0192   2.3689   2.4217   2.325    2.054    1.7484   1.4691
  0.95481  0.25551 -0.25678 -0.31246 -0.46308 -0.3581  -0.36193 -0.31974
 -0.42845 -0.29101 -0.41659 -0.45404 -0.37164 -0.36892 -0.29578 -0.46945
 -0.32956 -0.23513]",0.588853429325472
55,1899366758742482396,1.0,"[ 0.30633    0.42741    0.36589    0.45021    0.47055    0.55274
  0.92625    1.1423     1.2735     1.4464     1.5737     1.9466
  2.2667     2.1761     2.0371     1.8584     1.7444     1.547
  1.2638     0.74393    0.19274   -0.0051231 -0.0045448 -0.0044781
 -0.13646    0.041175  -0.01151    0.056577   0.046861   0.044559
  0.081305   0.015736   0.11643    0.12444    0.17418  ]",0.5704790883405618
55,-3915139049029445865,2.0,"[ 0.67202    0.62691    0.62784    0.69671    0.70888    0.62609
  0.57606    0.62016    0.67202    0.67614    0.66872    0.67706
  0.69045    0.67136    0.62061    0.63162    0.69045    0.67564
  0.61422    0.60209    0.63516    0.6569     0.64192    0.63726
  0.63516    0.60782    0.58182    0.5128     0.41403    0.38188
  0.3624     0.33728    0.35875    0.39591    0.36299    0.21228
  0.11918    0.11356   -0.0059556 -0.022287   0.082326  -0.073509
 -0.37167   -0.68286   -1.2261    -1.8398    -2.2403    -2.5631
 -3.0873   ]",0.7335213014490657
55,6093080310287019648,2.0,"[ 0.18723   0.20302   0.32232   0.36222   0.45052   0.57678   0.53704
  0.52684   0.61418   0.59234   0.60938   0.66512   0.56674   0.58034
  0.70331   0.73658   0.74144   0.69478   0.71064   0.72825   0.66407
  0.71242   0.73477   0.66838   0.72099   0.76639   0.72263   0.78143
  0.79319   0.71146   0.79176   0.87734   0.87962   0.87756   0.87357
  0.91353   0.86159   0.84549   0.9262    0.8336    0.69781   0.60199
  0.57428   0.69601   0.70262   0.54773   0.38888   0.32788   0.2997
  0.13775   0.18406   0.47784   0.44531   0.082897 -0.28116  -0.75197
 -1.273    -1.7652   -2.429    -2.9454   -3.3052   -3.1752   -2.3114  ]",0.7280934636057269
55,-5117733749761246981,2.0,"[ 0.57606    0.62016    0.67202    0.67614    0.66872    0.67706
  0.69045    0.67136    0.62061    0.63162    0.69045    0.67564
  0.61422    0.60209    0.63516    0.6569     0.64192    0.63726
  0.63516    0.60782    0.58182    0.5128     0.41403    0.38188
  0.3624     0.33728    0.35875    0.39591    0.36299    0.21228
  0.11918    0.11356   -0.0059556 -0.022287   0.082326  -0.073509
 -0.37167   -0.68286   -1.2261    -1.8398    -2.2403    -2.5631   ]",0.7193209275192526
55,2595333910774797157,2.0,"[ 0.4463     0.3956     0.52829    0.62714    0.5778     0.56145
  0.58991    0.62214    0.66877    0.67202    0.62691    0.62784
  0.69671    0.70888    0.62609    0.57606    0.62016    0.67202
  0.67614    0.66872    0.67706    0.69045    0.67136    0.62061
  0.63162    0.69045    0.67564    0.61422    0.60209    0.63516
  0.6569     0.64192    0.63726    0.63516    0.60782    0.58182
  0.5128     0.41403    0.38188    0.3624     0.33728    0.35875
  0.39591    0.36299    0.21228    0.11918    0.11356   -0.0059556
 -0.022287   0.082326  -0.073509  -0.37167   -0.68286   -1.2261
 -1.8398    -2.2403    -2.5631    -3.0873    -3.5663    -3.5528
 -3.1237    -2.258     -1.3006   ]",0.7167382667347837
55,5342755680982551255,2.0,"[ 0.38255   0.43432   0.50228   0.46486   0.48777   0.50818   0.51848
  0.58483   0.58301   0.60661   0.66843   0.62981   0.59085   0.63353
  0.64319   0.60182   0.62748   0.68975   0.64866   0.62257   0.67918
  0.68448   0.66976   0.66921   0.64791   0.68783   0.74642   0.74715
  0.72966   0.76205   0.79441   0.77148   0.86291   0.98926   0.90029
  0.90933   0.98163   0.94048   1.0168    0.99817   0.97465   0.85498
  0.70582   0.71021   0.66921   0.70942   0.62971   0.46404   0.38569
  0.27878   0.23578   0.35621   0.57384   0.69653   0.47578  -0.054265
 -0.6656   -1.3203   -2.0226   -2.7236   -3.4205   -3.7437   -2.9587  ]",0.715023379269652
55,4111049705793807953,2.0,"[ 0.52397  0.48095  0.53864  0.50063  0.46435  0.54105  0.49992  0.51171
  0.51686  0.51768  0.47781  0.49316  0.54949  0.50214  0.51849  0.49813
  0.55063  0.48548  0.5141   0.57033  0.5177   0.49191  0.53324  0.5736
  0.60214  0.65623  0.66825  0.6726   0.61006  0.6515   0.71082  0.74108
  0.77293  0.76716  0.72947  0.72177  0.69505  0.76439  0.7457   0.75343
  0.78552  0.69359  0.6378   0.46602  0.41852  0.51012  0.49948  0.46786
  0.37616  0.314    0.26521  0.34446  0.58416  0.67477  0.47678 -0.16244
 -0.93503 -1.6543  -2.4342  -3.4722  -4.2808  -4.6294  -3.7942 ]",0.7104419834952617
55,-8070925988445124442,2.0,"[ 0.60661   0.66843   0.62981   0.59085   0.63353   0.64319   0.60182
  0.62748   0.68975   0.64866   0.62257   0.67918   0.68448   0.66976
  0.66921   0.64791   0.68783   0.74642   0.74715   0.72966   0.76205
  0.79441   0.77148   0.86291   0.98926   0.90029   0.90933   0.98163
  0.94048   1.0168    0.99817   0.97465   0.85498   0.70582   0.71021
  0.66921   0.70942   0.62971   0.46404   0.38569   0.27878   0.23578
  0.35621   0.57384   0.69653   0.47578  -0.054265 -0.6656   -1.3203
 -2.0226   -2.7236   -3.4205   -3.7437   -2.9587   -2.305    -0.81526 ]",0.7089209668474418
55,-3978087584922850221,2.0,"[ 0.51768  0.47781  0.49316  0.54949  0.50214  0.51849  0.49813  0.55063
  0.48548  0.5141   0.57033  0.5177   0.49191  0.53324  0.5736   0.60214
  0.65623  0.66825  0.6726   0.61006  0.6515   0.71082  0.74108  0.77293
  0.76716  0.72947  0.72177  0.69505  0.76439  0.7457   0.75343  0.78552
  0.69359  0.6378   0.46602  0.41852  0.51012  0.49948  0.46786  0.37616
  0.314    0.26521  0.34446  0.58416  0.67477  0.47678 -0.16244 -0.93503
 -1.6543  -2.4342  -3.4722  -4.2808  -4.6294  -3.7942  -2.8515  -1.7435 ]",0.7088471298628928
55,391949716194251637,2.0,"[ 0.59234   0.60938   0.66512   0.56674   0.58034   0.70331   0.73658
  0.74144   0.69478   0.71064   0.72825   0.66407   0.71242   0.73477
  0.66838   0.72099   0.76639   0.72263   0.78143   0.79319   0.71146
  0.79176   0.87734   0.87962   0.87756   0.87357   0.91353   0.86159
  0.84549   0.9262    0.8336    0.69781   0.60199   0.57428   0.69601
  0.70262   0.54773   0.38888   0.32788   0.2997    0.13775   0.18406
  0.47784   0.44531   0.082897 -0.28116  -0.75197  -1.273    -1.7652
 -2.429    -2.9454   -3.3052   -3.1752   -2.3114   -1.5974    0.048616]",0.7067118074347332
55,-8637952601597701721,2.0,"[ 0.49359  0.54863  0.57976  0.50401  0.49883  0.49105  0.54821  0.52401
  0.47375  0.47073  0.46177  0.56359  0.54539  0.59011  0.67866  0.61267
  0.5861   0.61383  0.68664  0.6863   0.67604  0.75445  0.71449  0.73888
  0.75183  0.78996  0.79352  0.71717  0.7952   0.803    0.78673  0.77161
  0.69158  0.59685  0.45297  0.4531   0.50997  0.53807  0.56183  0.49884
  0.51574  0.46179  0.47512  0.4314   0.24814 -0.16616 -0.81866 -1.4656
 -2.109   -2.8533  -3.8559  -4.3444  -4.2361  -3.1465  -2.3519  -1.5933 ]",0.6859944398921719
55,-2028039097275449255,4.0,"[ 0.24131   0.2388    0.37332   0.40005   0.31549   0.3703    0.46425
  0.5193    0.55024   0.47515   0.4348    0.50969   0.53086   0.57909
  0.63485   0.62828   0.63844   0.57647   0.60074   0.67721   0.58528
  0.53612   0.56574   0.56304   0.60121   0.64978   0.6668    0.68504
  0.64268   0.60888   0.64978   0.65323   0.66694   0.72262   0.77092
  0.82177   0.83057   0.7879    0.7275    0.65051   0.54229   0.43517
  0.37591   0.39108   0.48649   0.56379   0.47753   0.36292   0.39258
  0.24989   0.15532   0.45992   0.52577   0.28978   0.035831 -0.48964
 -1.1571   -1.7688   -2.5415   -3.1596   -3.8004   -3.9944   -3.1022  ]",0.3950278355723823
55,-3917357533507062595,4.0,"[ 0.52996  0.57919  0.56379  0.59825  0.54057  0.5508   0.67129  0.60801
  0.57211  0.5352   0.50074  0.60807  0.57253  0.46568  0.47471  0.54341
  0.52343  0.44607  0.43865  0.5175   0.45032  0.46083  0.39997  0.39352
  0.48012  0.47504  0.52641  0.5996   0.61466  0.72917  0.79587  0.90765
  0.98425  1.0995   1.1841   1.3377   1.4643   1.325    1.2061   1.1475
  1.0949   1.0272   0.86076  0.52719  0.25879  0.14694  0.12699 -0.17528
 -0.64452 -1.2373  -1.839   -2.4359  -3.3907  -3.9941  -3.4906  -2.484  ]",0.37883293360020504
55,-3334766757661851057,4.0,"[ 0.35845  0.43821  0.43717  0.48077  0.4304   0.49325  0.51105  0.49123
  0.50885  0.52996  0.57919  0.56379  0.59825  0.54057  0.5508   0.67129
  0.60801  0.57211  0.5352   0.50074  0.60807  0.57253  0.46568  0.47471
  0.54341  0.52343  0.44607  0.43865  0.5175   0.45032  0.46083  0.39997
  0.39352  0.48012  0.47504  0.52641  0.5996   0.61466  0.72917  0.79587
  0.90765  0.98425  1.0995   1.1841   1.3377   1.4643   1.325    1.2061
  1.1475   1.0949   1.0272   0.86076  0.52719  0.25879  0.14694  0.12699
 -0.17528 -0.64452 -1.2373  -1.839   -2.4359  -3.3907  -3.9941 ]",0.376047660806275
55,-7114109749624918171,4.0,"[ 0.60888   0.64978   0.65323   0.66694   0.72262   0.77092   0.82177
  0.83057   0.7879    0.7275    0.65051   0.54229   0.43517   0.37591
  0.39108   0.48649   0.56379   0.47753   0.36292   0.39258   0.24989
  0.15532   0.45992   0.52577   0.28978   0.035831 -0.48964  -1.1571
 -1.7688   -2.5415   -3.1596   -3.8004   -3.9944   -3.1022   -2.6673  ]",0.3227251519096045
55,2427345667977838479,4.0,"[ 0.45032  0.46083  0.39997  0.39352  0.48012  0.47504  0.52641  0.5996
  0.61466  0.72917  0.79587  0.90765  0.98425  1.0995   1.1841   1.3377
  1.4643   1.325    1.2061   1.1475   1.0949   1.0272   0.86076  0.52719
  0.25879  0.14694  0.12699 -0.17528 -0.64452 -1.2373  -1.839   -2.4359
 -3.3907  -3.9941  -3.4906 ]",0.314067355807779
55,100698797251890889,4.0,"[ 0.47515   0.4348    0.50969   0.53086   0.57909   0.63485   0.62828
  0.63844   0.57647   0.60074   0.67721   0.58528   0.53612   0.56574
  0.56304   0.60121   0.64978   0.6668    0.68504   0.64268   0.60888
  0.64978   0.65323   0.66694   0.72262   0.77092   0.82177   0.83057
  0.7879    0.7275    0.65051   0.54229   0.43517   0.37591   0.39108
  0.48649   0.56379   0.47753   0.36292   0.39258   0.24989   0.15532
  0.45992   0.52577   0.28978   0.035831 -0.48964  -1.1571   -1.7688  ]",0.27184260926205017
55,3119736319766485656,4.0,"[0.37771  0.36212  0.34745  0.41931  0.47779  0.40865  0.3877   0.37553
 0.2871   0.28431  0.31379  0.26691  0.22667  0.19148  0.21981  0.30755
 0.2361   0.16013  0.21514  0.21981  0.18558  0.15361  0.12263  0.11122
 0.090821 0.073101 0.060884 0.043457 0.091671 0.17681  0.13957  0.059995
 0.11417  0.18802  0.17681  0.18806  0.23255  0.24954  0.26789  0.24131
 0.2388   0.37332  0.40005  0.31549  0.3703   0.46425  0.5193   0.55024
 0.47515 ]",0.258911609180473
55,-1800932262389727934,4.0,"[ 0.61466  0.72917  0.79587  0.90765  0.98425  1.0995   1.1841   1.3377
  1.4643   1.325    1.2061   1.1475   1.0949   1.0272   0.86076  0.52719
  0.25879  0.14694  0.12699 -0.17528 -0.64452 -1.2373  -1.839   -2.4359
 -3.3907  -3.9941  -3.4906  -2.484  ]",0.23223940815143312
55,6035740930622574203,4.0,"[ 0.47515   0.4348    0.50969   0.53086   0.57909   0.63485   0.62828
  0.63844   0.57647   0.60074   0.67721   0.58528   0.53612   0.56574
  0.56304   0.60121   0.64978   0.6668    0.68504   0.64268   0.60888
  0.64978   0.65323   0.66694   0.72262   0.77092   0.82177   0.83057
  0.7879    0.7275    0.65051   0.54229   0.43517   0.37591   0.39108
  0.48649   0.56379   0.47753   0.36292   0.39258   0.24989   0.15532
  0.45992   0.52577   0.28978   0.035831 -0.48964  -1.1571   -1.7688
 -2.5415   -3.1596   -3.8004   -3.9944   -3.1022   -2.6673   -0.87132 ]",0.23033746075509115
55,-8011593827859491070,4.0,"[0.3488   0.4495   0.48829  0.45365  0.51162  0.45629  0.37771  0.36212
 0.34745  0.41931  0.47779  0.40865  0.3877   0.37553  0.2871   0.28431
 0.31379  0.26691  0.22667  0.19148  0.21981  0.30755  0.2361   0.16013
 0.21514  0.21981  0.18558  0.15361  0.12263  0.11122  0.090821 0.073101
 0.060884 0.043457 0.091671 0.17681  0.13957  0.059995 0.11417  0.18802
 0.17681  0.18806 ]",0.2284344192340163
70,-2592706657845840442,1.0,"[ 0.66439  0.60376  0.58133  0.5437   0.60798  0.575    0.58186  0.4533
  0.54875  0.46008  0.40378  0.43669  0.3032   0.52221  0.42012  0.40439
  0.42607  0.323    0.38253  0.37489  0.24601  0.37031  0.33646  0.31924
  0.2874   0.44056  0.56054  0.67259  0.98308  1.251    1.2321   1.6038
  2.0192   2.3689   2.4217   2.325    2.054    1.7484   1.4691   0.95481
  0.25551 -0.25678 -0.31246 -0.46308 -0.3581  -0.36193 -0.31974 -0.42845
 -0.29101 -0.41659 -0.45404 -0.37164 -0.36892 -0.29578 -0.46945 -0.32956
 -0.23513  0.57473  1.0586   0.88663  1.2658   0.89578 -0.01588]",0.6707946226534545
70,-5768321124922556522,1.0,"[ 0.7128    0.62387   0.70911   0.7534    0.62813   0.72146   0.63358
  0.55028   0.44896   0.49886   0.53231   0.48577   0.45683   0.36415
  0.37683   0.22851   0.27083   0.31742   0.27701   0.25115   0.32267
  0.31386   0.1987    0.27924   0.4601    0.65541   0.9548    1.1857
  1.3028    1.3617    1.5119    1.942     2.2185    2.1502    1.9216
  1.5389    1.3165    1.01      0.66      0.081124 -0.37264  -0.65382
 -0.67004  -0.69901  -0.72759  -0.51988  -0.58415  -0.51971  -0.5861
 -0.63567  -0.73378  -0.64362  -0.45218  -0.48164  -0.54655  -0.31574
  0.44011   0.89847   1.2217    1.5602    1.3209    1.1742   -0.052122]",0.660331908138741
70,7832656574371253646,1.0,"[ 0.56034   0.53284   0.41778   0.50559   0.3863    0.40434   0.464
  0.40629   0.50318   0.42061   0.465     0.42977   0.49708   0.49674
  0.57921   0.97975   1.2233    1.28      1.3952    1.6606    1.9279
  1.9147    1.8015    1.6786    1.4401    1.274     1.0705    0.66184
  0.3534    0.036911 -0.14405  -0.1815   -0.11408  -0.14381  -0.085822
 -0.10484  -0.17324  -0.21514  -0.13869  -0.13822  -0.15056  -0.11212
 -0.10944  -0.074525  0.01459   0.20798   0.78341   1.1792    1.1937  ]",0.6286218154141263
70,-1537992777720823700,1.0,"[ 0.46008  0.40378  0.43669  0.3032   0.52221  0.42012  0.40439  0.42607
  0.323    0.38253  0.37489  0.24601  0.37031  0.33646  0.31924  0.2874
  0.44056  0.56054  0.67259  0.98308  1.251    1.2321   1.6038   2.0192
  2.3689   2.4217   2.325    2.054    1.7484   1.4691   0.95481  0.25551
 -0.25678 -0.31246 -0.46308 -0.3581  -0.36193 -0.31974 -0.42845 -0.29101
 -0.41659 -0.45404 -0.37164 -0.36892 -0.29578 -0.46945 -0.32956 -0.23513
  0.57473]",0.6092117122090822
70,4447450356215481808,1.0,"[ 0.613     0.53934   0.67974   0.59805   0.5599    0.51803   0.55874
  0.43255   0.4608    0.56034   0.53284   0.41778   0.50559   0.3863
  0.40434   0.464     0.40629   0.50318   0.42061   0.465     0.42977
  0.49708   0.49674   0.57921   0.97975   1.2233    1.28      1.3952
  1.6606    1.9279    1.9147    1.8015    1.6786    1.4401    1.274
  1.0705    0.66184   0.3534    0.036911 -0.14405  -0.1815   -0.11408
 -0.14381  -0.085822 -0.10484  -0.17324  -0.21514  -0.13869  -0.13822
 -0.15056  -0.11212  -0.10944  -0.074525  0.01459   0.20798   0.78341
  1.1792    1.1937    1.186     0.98719   0.68892   0.77437   0.82394 ]",0.5992164806518195
70,-570122814766687138,1.0,"[ 0.55623    0.51095    0.59078    0.55924    0.54987    0.48123
  0.47063    0.4402     0.3898     0.36795    0.37278    0.33109
  0.3864     0.34362    0.30252    0.42751    0.33791    0.39377
  0.31426    0.46302    0.35811    0.30633    0.42741    0.36589
  0.45021    0.47055    0.55274    0.92625    1.1423     1.2735
  1.4464     1.5737     1.9466     2.2667     2.1761     2.0371
  1.8584     1.7444     1.547      1.2638     0.74393    0.19274
 -0.0051231 -0.0045448 -0.0044781 -0.13646    0.041175  -0.01151
  0.056577   0.046861   0.044559   0.081305   0.015736   0.11643
  0.12444    0.17418    0.3812     1.0143     1.5735     1.264
  1.4922     1.6146     1.3943   ]",0.5970476456366409
70,3230074558603608275,1.0,"[ 0.49886   0.53231   0.48577   0.45683   0.36415   0.37683   0.22851
  0.27083   0.31742   0.27701   0.25115   0.32267   0.31386   0.1987
  0.27924   0.4601    0.65541   0.9548    1.1857    1.3028    1.3617
  1.5119    1.942     2.2185    2.1502    1.9216    1.5389    1.3165
  1.01      0.66      0.081124 -0.37264  -0.65382  -0.67004  -0.69901
 -0.72759  -0.51988  -0.58415  -0.51971  -0.5861   -0.63567  -0.73378
 -0.64362  -0.45218  -0.48164  -0.54655  -0.31574   0.44011   0.89847 ]",0.5932282873139777
70,863294155201537606,1.0,"[ 0.36795    0.37278    0.33109    0.3864     0.34362    0.30252
  0.42751    0.33791    0.39377    0.31426    0.46302    0.35811
  0.30633    0.42741    0.36589    0.45021    0.47055    0.55274
  0.92625    1.1423     1.2735     1.4464     1.5737     1.9466
  2.2667     2.1761     2.0371     1.8584     1.7444     1.547
  1.2638     0.74393    0.19274   -0.0051231 -0.0045448 -0.0044781
 -0.13646    0.041175  -0.01151    0.056577   0.046861   0.044559
  0.081305   0.015736   0.11643    0.12444    0.17418    0.3812
  1.0143   ]",0.5843631758683342
70,-126629559826546119,1.0,"[ 0.42751    0.33791    0.39377    0.31426    0.46302    0.35811
  0.30633    0.42741    0.36589    0.45021    0.47055    0.55274
  0.92625    1.1423     1.2735     1.4464     1.5737     1.9466
  2.2667     2.1761     2.0371     1.8584     1.7444     1.547
  1.2638     0.74393    0.19274   -0.0051231 -0.0045448 -0.0044781
 -0.13646    0.041175  -0.01151    0.056577   0.046861   0.044559
  0.081305   0.015736   0.11643    0.12444    0.17418    0.3812   ]",0.5833081001952336
70,-2679675892206747665,1.0,"[ 0.49886   0.53231   0.48577   0.45683   0.36415   0.37683   0.22851
  0.27083   0.31742   0.27701   0.25115   0.32267   0.31386   0.1987
  0.27924   0.4601    0.65541   0.9548    1.1857    1.3028    1.3617
  1.5119    1.942     2.2185    2.1502    1.9216    1.5389    1.3165
  1.01      0.66      0.081124 -0.37264  -0.65382  -0.67004  -0.69901
 -0.72759  -0.51988  -0.58415  -0.51971  -0.5861   -0.63567  -0.73378
 -0.64362  -0.45218  -0.48164  -0.54655  -0.31574   0.44011   0.89847
  1.2217    1.5602    1.3209    1.1742   -0.052122 -0.16086  -0.065665]",0.5716129953960729
70,3061158865945954670,2.0,"[ 0.20978   0.24058   0.30342   0.40691   0.40911   0.40021   0.50327
  0.52694   0.49503   0.59201   0.6589    0.62892   0.64336   0.59732
  0.56624   0.65534   0.57959   0.51979   0.61782   0.56985   0.53663
  0.63043   0.7086    0.71163   0.67107   0.69705   0.66256   0.61202
  0.63383   0.57097   0.58488   0.71952   0.77419   0.82069   0.8468
  0.74508   0.6635    0.69169   0.68832   0.63153   0.59849   0.51183
  0.41685   0.41177   0.42119   0.48796   0.52923   0.41638   0.34943
  0.28449   0.074071 -0.026031  0.074739  0.052329 -0.20267  -0.60569
 -1.0615   -1.5967   -2.3285   -2.8501   -3.6446   -4.2126   -3.7954  ]",0.6101869149490692
70,-3915139049029445865,2.0,"[ 0.67202    0.62691    0.62784    0.69671    0.70888    0.62609
  0.57606    0.62016    0.67202    0.67614    0.66872    0.67706
  0.69045    0.67136    0.62061    0.63162    0.69045    0.67564
  0.61422    0.60209    0.63516    0.6569     0.64192    0.63726
  0.63516    0.60782    0.58182    0.5128     0.41403    0.38188
  0.3624     0.33728    0.35875    0.39591    0.36299    0.21228
  0.11918    0.11356   -0.0059556 -0.022287   0.082326  -0.073509
 -0.37167   -0.68286   -1.2261    -1.8398    -2.2403    -2.5631
 -3.0873   ]",0.6047925747867291
70,-5117733749761246981,2.0,"[ 0.57606    0.62016    0.67202    0.67614    0.66872    0.67706
  0.69045    0.67136    0.62061    0.63162    0.69045    0.67564
  0.61422    0.60209    0.63516    0.6569     0.64192    0.63726
  0.63516    0.60782    0.58182    0.5128     0.41403    0.38188
  0.3624     0.33728    0.35875    0.39591    0.36299    0.21228
  0.11918    0.11356   -0.0059556 -0.022287   0.082326  -0.073509
 -0.37167   -0.68286   -1.2261    -1.8398    -2.2403    -2.5631   ]",0.6012663733797493
70,6093080310287019648,2.0,"[ 0.18723   0.20302   0.32232   0.36222   0.45052   0.57678   0.53704
  0.52684   0.61418   0.59234   0.60938   0.66512   0.56674   0.58034
  0.70331   0.73658   0.74144   0.69478   0.71064   0.72825   0.66407
  0.71242   0.73477   0.66838   0.72099   0.76639   0.72263   0.78143
  0.79319   0.71146   0.79176   0.87734   0.87962   0.87756   0.87357
  0.91353   0.86159   0.84549   0.9262    0.8336    0.69781   0.60199
  0.57428   0.69601   0.70262   0.54773   0.38888   0.32788   0.2997
  0.13775   0.18406   0.47784   0.44531   0.082897 -0.28116  -0.75197
 -1.273    -1.7652   -2.429    -2.9454   -3.3052   -3.1752   -2.3114  ]",0.5958035315437177
70,5342755680982551255,2.0,"[ 0.38255   0.43432   0.50228   0.46486   0.48777   0.50818   0.51848
  0.58483   0.58301   0.60661   0.66843   0.62981   0.59085   0.63353
  0.64319   0.60182   0.62748   0.68975   0.64866   0.62257   0.67918
  0.68448   0.66976   0.66921   0.64791   0.68783   0.74642   0.74715
  0.72966   0.76205   0.79441   0.77148   0.86291   0.98926   0.90029
  0.90933   0.98163   0.94048   1.0168    0.99817   0.97465   0.85498
  0.70582   0.71021   0.66921   0.70942   0.62971   0.46404   0.38569
  0.27878   0.23578   0.35621   0.57384   0.69653   0.47578  -0.054265
 -0.6656   -1.3203   -2.0226   -2.7236   -3.4205   -3.7437   -2.9587  ]",0.5936563718799558
70,461446115881509236,2.0,"[ 0.59201   0.6589    0.62892   0.64336   0.59732   0.56624   0.65534
  0.57959   0.51979   0.61782   0.56985   0.53663   0.63043   0.7086
  0.71163   0.67107   0.69705   0.66256   0.61202   0.63383   0.57097
  0.58488   0.71952   0.77419   0.82069   0.8468    0.74508   0.6635
  0.69169   0.68832   0.63153   0.59849   0.51183   0.41685   0.41177
  0.42119   0.48796   0.52923   0.41638   0.34943   0.28449   0.074071
 -0.026031  0.074739  0.052329 -0.20267  -0.60569  -1.0615   -1.5967
 -2.3285   -2.8501   -3.6446   -4.2126   -3.7954   -3.7114   -1.6273  ]",0.5901631881682324
70,4111049705793807953,2.0,"[ 0.52397  0.48095  0.53864  0.50063  0.46435  0.54105  0.49992  0.51171
  0.51686  0.51768  0.47781  0.49316  0.54949  0.50214  0.51849  0.49813
  0.55063  0.48548  0.5141   0.57033  0.5177   0.49191  0.53324  0.5736
  0.60214  0.65623  0.66825  0.6726   0.61006  0.6515   0.71082  0.74108
  0.77293  0.76716  0.72947  0.72177  0.69505  0.76439  0.7457   0.75343
  0.78552  0.69359  0.6378   0.46602  0.41852  0.51012  0.49948  0.46786
  0.37616  0.314    0.26521  0.34446  0.58416  0.67477  0.47678 -0.16244
 -0.93503 -1.6543  -2.4342  -3.4722  -4.2808  -4.6294  -3.7942 ]",0.5858735931411861
70,-8070925988445124442,2.0,"[ 0.60661   0.66843   0.62981   0.59085   0.63353   0.64319   0.60182
  0.62748   0.68975   0.64866   0.62257   0.67918   0.68448   0.66976
  0.66921   0.64791   0.68783   0.74642   0.74715   0.72966   0.76205
  0.79441   0.77148   0.86291   0.98926   0.90029   0.90933   0.98163
  0.94048   1.0168    0.99817   0.97465   0.85498   0.70582   0.71021
  0.66921   0.70942   0.62971   0.46404   0.38569   0.27878   0.23578
  0.35621   0.57384   0.69653   0.47578  -0.054265 -0.6656   -1.3203
 -2.0226   -2.7236   -3.4205   -3.7437   -2.9587   -2.305    -0.81526 ]",0.5706280093291264
70,-3978087584922850221,2.0,"[ 0.51768  0.47781  0.49316  0.54949  0.50214  0.51849  0.49813  0.55063
  0.48548  0.5141   0.57033  0.5177   0.49191  0.53324  0.5736   0.60214
  0.65623  0.66825  0.6726   0.61006  0.6515   0.71082  0.74108  0.77293
  0.76716  0.72947  0.72177  0.69505  0.76439  0.7457   0.75343  0.78552
  0.69359  0.6378   0.46602  0.41852  0.51012  0.49948  0.46786  0.37616
  0.314    0.26521  0.34446  0.58416  0.67477  0.47678 -0.16244 -0.93503
 -1.6543  -2.4342  -3.4722  -4.2808  -4.6294  -3.7942  -2.8515  -1.7435 ]",0.5680509602214834
70,4054524635749776946,2.0,"[ 0.69045    0.67136    0.62061    0.63162    0.69045    0.67564
  0.61422    0.60209    0.63516    0.6569     0.64192    0.63726
  0.63516    0.60782    0.58182    0.5128     0.41403    0.38188
  0.3624     0.33728    0.35875    0.39591    0.36299    0.21228
  0.11918    0.11356   -0.0059556 -0.022287   0.082326  -0.073509
 -0.37167   -0.68286   -1.2261    -1.8398    -2.2403   ]",0.5598884325170759
70,5526369312300129843,3.0,"[-0.15851 -0.22513 -0.28048 -0.3448  -0.40156 -0.44993 -0.49698 -0.51519
 -0.54524 -0.53104 -0.54625 -0.53059 -0.53544 -0.53458 -0.57296 -0.65439
 -0.7304  -0.83441 -0.9395  -1.0313  -1.1134  -1.2022  -1.2743  -1.3701
 -1.4371  -1.4824  -1.5185  -1.5484  -1.553   -1.5801  -1.5893  -1.6106
 -1.6112  -1.6383  -1.6578 ]",0.3459819772847218
70,-8900306605093009028,3.0,"[-0.65243   -0.047472   0.11974    0.066969   0.063971   0.06216
  0.061695   0.025422   0.047443   0.064729   0.049622   0.087334
  0.0055585  0.025522   0.0046054  0.006875  -0.043205  -0.098749
 -0.079498  -0.14078   -0.15381   -0.2061    -0.23356   -0.23681
 -0.26657   -0.33556   -0.34664   -0.35162   -0.37713   -0.38966
 -0.49398   -0.39813   -0.39184   -0.40463   -0.37597   -0.34198
 -0.3146    -0.33439   -0.26914   -0.17846   -0.10096   -0.059928 ]",0.3254845738726171
70,-8066166117951026388,3.0,"[ 0.70462   0.66434   0.6619    0.66903   0.63731   0.61679   0.63322
  0.57991   0.56743   0.54002   0.51774   0.48266   0.47544   0.44408
  0.39468   0.34717   0.30811   0.253     0.17474   0.11623   0.077981
  0.020247 -0.039692 -0.10915  -0.15851  -0.22513  -0.28048  -0.3448
 -0.40156  -0.44993  -0.49698  -0.51519  -0.54524  -0.53104  -0.54625 ]",0.3189437627626297
70,-3826551439608133924,3.0,"[0.87867 0.98836 1.0032  0.9884  0.99262 0.99769 1.0052  0.97305 0.98033
 0.98363 0.97771 0.95465 0.96208 0.94235 0.93279 0.91299 0.91225 0.89453
 0.87512 0.86323 0.84948 0.86003 0.83282 0.79954 0.81264 0.79402 0.78137
 0.78951 0.78701 0.78408 0.78816 0.7745  0.78253 0.77934 0.79264]",0.31725950826902566
70,6344361334172481140,3.0,"[1.0032  0.9884  0.99262 0.99769 1.0052  0.97305 0.98033 0.98363 0.97771
 0.95465 0.96208 0.94235 0.93279 0.91299 0.91225 0.89453 0.87512 0.86323
 0.84948 0.86003 0.83282 0.79954 0.81264 0.79402 0.78137 0.78951 0.78701
 0.78408 0.78816 0.7745  0.78253 0.77934 0.79264 0.80085 0.79873 0.79414
 0.81706 0.83015 0.83037 0.86837 0.87969 0.86307]",0.30918888673769934
70,-5488109123479202882,3.0,"[ 0.70351   0.70462   0.66434   0.6619    0.66903   0.63731   0.61679
  0.63322   0.57991   0.56743   0.54002   0.51774   0.48266   0.47544
  0.44408   0.39468   0.34717   0.30811   0.253     0.17474   0.11623
  0.077981  0.020247 -0.039692 -0.10915  -0.15851  -0.22513  -0.28048 ]",0.2877760986698727
70,363375928244103889,3.0,"[0.98033 0.98363 0.97771 0.95465 0.96208 0.94235 0.93279 0.91299 0.91225
 0.89453 0.87512 0.86323 0.84948 0.86003 0.83282 0.79954 0.81264 0.79402
 0.78137 0.78951 0.78701 0.78408 0.78816 0.7745  0.78253 0.77934 0.79264
 0.80085 0.79873 0.79414 0.81706 0.83015 0.83037 0.86837 0.87969]",0.2729004047142162
70,-2559327942772542415,3.0,"[ 0.063971   0.06216    0.061695   0.025422   0.047443   0.064729
  0.049622   0.087334   0.0055585  0.025522   0.0046054  0.006875
 -0.043205  -0.098749  -0.079498  -0.14078   -0.15381   -0.2061
 -0.23356   -0.23681   -0.26657   -0.33556   -0.34664   -0.35162
 -0.37713   -0.38966   -0.49398   -0.39813  ]",0.27152639373644066
70,1739882260065841973,3.0,"[-0.3448  -0.40156 -0.44993 -0.49698 -0.51519 -0.54524 -0.53104 -0.54625
 -0.53059 -0.53544 -0.53458 -0.57296 -0.65439 -0.7304  -0.83441 -0.9395
 -1.0313  -1.1134  -1.2022  -1.2743  -1.3701  -1.4371  -1.4824  -1.5185
 -1.5484  -1.553   -1.5801  -1.5893 ]",0.2663450264159749
70,5415505201629159317,3.0,"[ 0.63322   0.57991   0.56743   0.54002   0.51774   0.48266   0.47544
  0.44408   0.39468   0.34717   0.30811   0.253     0.17474   0.11623
  0.077981  0.020247 -0.039692 -0.10915  -0.15851  -0.22513  -0.28048
 -0.3448   -0.40156  -0.44993  -0.49698  -0.51519  -0.54524  -0.53104 ]",0.2635590244398985
70,-2028039097275449255,4.0,"[ 0.24131   0.2388    0.37332   0.40005   0.31549   0.3703    0.46425
  0.5193    0.55024   0.47515   0.4348    0.50969   0.53086   0.57909
  0.63485   0.62828   0.63844   0.57647   0.60074   0.67721   0.58528
  0.53612   0.56574   0.56304   0.60121   0.64978   0.6668    0.68504
  0.64268   0.60888   0.64978   0.65323   0.66694   0.72262   0.77092
  0.82177   0.83057   0.7879    0.7275    0.65051   0.54229   0.43517
  0.37591   0.39108   0.48649   0.56379   0.47753   0.36292   0.39258
  0.24989   0.15532   0.45992   0.52577   0.28978   0.035831 -0.48964
 -1.1571   -1.7688   -2.5415   -3.1596   -3.8004   -3.9944   -3.1022  ]",0.3544454350436627
70,-3917357533507062595,4.0,"[ 0.52996  0.57919  0.56379  0.59825  0.54057  0.5508   0.67129  0.60801
  0.57211  0.5352   0.50074  0.60807  0.57253  0.46568  0.47471  0.54341
  0.52343  0.44607  0.43865  0.5175   0.45032  0.46083  0.39997  0.39352
  0.48012  0.47504  0.52641  0.5996   0.61466  0.72917  0.79587  0.90765
  0.98425  1.0995   1.1841   1.3377   1.4643   1.325    1.2061   1.1475
  1.0949   1.0272   0.86076  0.52719  0.25879  0.14694  0.12699 -0.17528
 -0.64452 -1.2373  -1.839   -2.4359  -3.3907  -3.9941  -3.4906  -2.484  ]",0.33358161857748286
70,-3334766757661851057,4.0,"[ 0.35845  0.43821  0.43717  0.48077  0.4304   0.49325  0.51105  0.49123
  0.50885  0.52996  0.57919  0.56379  0.59825  0.54057  0.5508   0.67129
  0.60801  0.57211  0.5352   0.50074  0.60807  0.57253  0.46568  0.47471
  0.54341  0.52343  0.44607  0.43865  0.5175   0.45032  0.46083  0.39997
  0.39352  0.48012  0.47504  0.52641  0.5996   0.61466  0.72917  0.79587
  0.90765  0.98425  1.0995   1.1841   1.3377   1.4643   1.325    1.2061
  1.1475   1.0949   1.0272   0.86076  0.52719  0.25879  0.14694  0.12699
 -0.17528 -0.64452 -1.2373  -1.839   -2.4359  -3.3907  -3.9941 ]",0.3321512503999005
70,-7114109749624918171,4.0,"[ 0.60888   0.64978   0.65323   0.66694   0.72262   0.77092   0.82177
  0.83057   0.7879    0.7275    0.65051   0.54229   0.43517   0.37591
  0.39108   0.48649   0.56379   0.47753   0.36292   0.39258   0.24989
  0.15532   0.45992   0.52577   0.28978   0.035831 -0.48964  -1.1571
 -1.7688   -2.5415   -3.1596   -3.8004   -3.9944   -3.1022   -2.6673  ]",0.284490428761728
70,2427345667977838479,4.0,"[ 0.45032  0.46083  0.39997  0.39352  0.48012  0.47504  0.52641  0.5996
  0.61466  0.72917  0.79587  0.90765  0.98425  1.0995   1.1841   1.3377
  1.4643   1.325    1.2061   1.1475   1.0949   1.0272   0.86076  0.52719
  0.25879  0.14694  0.12699 -0.17528 -0.64452 -1.2373  -1.839   -2.4359
 -3.3907  -3.9941  -3.4906 ]",0.2613924245067794
70,100698797251890889,4.0,"[ 0.47515   0.4348    0.50969   0.53086   0.57909   0.63485   0.62828
  0.63844   0.57647   0.60074   0.67721   0.58528   0.53612   0.56574
  0.56304   0.60121   0.64978   0.6668    0.68504   0.64268   0.60888
  0.64978   0.65323   0.66694   0.72262   0.77092   0.82177   0.83057
  0.7879    0.7275    0.65051   0.54229   0.43517   0.37591   0.39108
  0.48649   0.56379   0.47753   0.36292   0.39258   0.24989   0.15532
  0.45992   0.52577   0.28978   0.035831 -0.48964  -1.1571   -1.7688  ]",0.243905691889405
70,3119736319766485656,4.0,"[0.37771  0.36212  0.34745  0.41931  0.47779  0.40865  0.3877   0.37553
 0.2871   0.28431  0.31379  0.26691  0.22667  0.19148  0.21981  0.30755
 0.2361   0.16013  0.21514  0.21981  0.18558  0.15361  0.12263  0.11122
 0.090821 0.073101 0.060884 0.043457 0.091671 0.17681  0.13957  0.059995
 0.11417  0.18802  0.17681  0.18806  0.23255  0.24954  0.26789  0.24131
 0.2388   0.37332  0.40005  0.31549  0.3703   0.46425  0.5193   0.55024
 0.47515 ]",0.23878426574754105
70,-6626260226697532641,4.0,"[0.67129 0.60801 0.57211 0.5352  0.50074 0.60807 0.57253 0.46568 0.47471
 0.54341 0.52343 0.44607 0.43865 0.5175  0.45032 0.46083 0.39997 0.39352
 0.48012 0.47504 0.52641]",0.19839282161568256
70,6035740930622574203,4.0,"[ 0.47515   0.4348    0.50969   0.53086   0.57909   0.63485   0.62828
  0.63844   0.57647   0.60074   0.67721   0.58528   0.53612   0.56574
  0.56304   0.60121   0.64978   0.6668    0.68504   0.64268   0.60888
  0.64978   0.65323   0.66694   0.72262   0.77092   0.82177   0.83057
  0.7879    0.7275    0.65051   0.54229   0.43517   0.37591   0.39108
  0.48649   0.56379   0.47753   0.36292   0.39258   0.24989   0.15532
  0.45992   0.52577   0.28978   0.035831 -0.48964  -1.1571   -1.7688
 -2.5415   -3.1596   -3.8004   -3.9944   -3.1022   -2.6673   -0.87132 ]",0.19708060257677001
70,-1800932262389727934,4.0,"[ 0.61466  0.72917  0.79587  0.90765  0.98425  1.0995   1.1841   1.3377
  1.4643   1.325    1.2061   1.1475   1.0949   1.0272   0.86076  0.52719
  0.25879  0.14694  0.12699 -0.17528 -0.64452 -1.2373  -1.839   -2.4359
 -3.3907  -3.9941  -3.4906  -2.484  ]",0.19275838808753185
115,-2592706657845840442,1.0,"[ 0.66439  0.60376  0.58133  0.5437   0.60798  0.575    0.58186  0.4533
  0.54875  0.46008  0.40378  0.43669  0.3032   0.52221  0.42012  0.40439
  0.42607  0.323    0.38253  0.37489  0.24601  0.37031  0.33646  0.31924
  0.2874   0.44056  0.56054  0.67259  0.98308  1.251    1.2321   1.6038
  2.0192   2.3689   2.4217   2.325    2.054    1.7484   1.4691   0.95481
  0.25551 -0.25678 -0.31246 -0.46308 -0.3581  -0.36193 -0.31974 -0.42845
 -0.29101 -0.41659 -0.45404 -0.37164 -0.36892 -0.29578 -0.46945 -0.32956
 -0.23513  0.57473  1.0586   0.88663  1.2658   0.89578 -0.01588]",0.6617914601971652
115,-5768321124922556522,1.0,"[ 0.7128    0.62387   0.70911   0.7534    0.62813   0.72146   0.63358
  0.55028   0.44896   0.49886   0.53231   0.48577   0.45683   0.36415
  0.37683   0.22851   0.27083   0.31742   0.27701   0.25115   0.32267
  0.31386   0.1987    0.27924   0.4601    0.65541   0.9548    1.1857
  1.3028    1.3617    1.5119    1.942     2.2185    2.1502    1.9216
  1.5389    1.3165    1.01      0.66      0.081124 -0.37264  -0.65382
 -0.67004  -0.69901  -0.72759  -0.51988  -0.58415  -0.51971  -0.5861
 -0.63567  -0.73378  -0.64362  -0.45218  -0.48164  -0.54655  -0.31574
  0.44011   0.89847   1.2217    1.5602    1.3209    1.1742   -0.052122]",0.6473164872923048
115,-1537992777720823700,1.0,"[ 0.46008  0.40378  0.43669  0.3032   0.52221  0.42012  0.40439  0.42607
  0.323    0.38253  0.37489  0.24601  0.37031  0.33646  0.31924  0.2874
  0.44056  0.56054  0.67259  0.98308  1.251    1.2321   1.6038   2.0192
  2.3689   2.4217   2.325    2.054    1.7484   1.4691   0.95481  0.25551
 -0.25678 -0.31246 -0.46308 -0.3581  -0.36193 -0.31974 -0.42845 -0.29101
 -0.41659 -0.45404 -0.37164 -0.36892 -0.29578 -0.46945 -0.32956 -0.23513
  0.57473]",0.6168007300485093
115,7832656574371253646,1.0,"[ 0.56034   0.53284   0.41778   0.50559   0.3863    0.40434   0.464
  0.40629   0.50318   0.42061   0.465     0.42977   0.49708   0.49674
  0.57921   0.97975   1.2233    1.28      1.3952    1.6606    1.9279
  1.9147    1.8015    1.6786    1.4401    1.274     1.0705    0.66184
  0.3534    0.036911 -0.14405  -0.1815   -0.11408  -0.14381  -0.085822
 -0.10484  -0.17324  -0.21514  -0.13869  -0.13822  -0.15056  -0.11212
 -0.10944  -0.074525  0.01459   0.20798   0.78341   1.1792    1.1937  ]",0.6147119722537739
115,863294155201537606,1.0,"[ 0.36795    0.37278    0.33109    0.3864     0.34362    0.30252
  0.42751    0.33791    0.39377    0.31426    0.46302    0.35811
  0.30633    0.42741    0.36589    0.45021    0.47055    0.55274
  0.92625    1.1423     1.2735     1.4464     1.5737     1.9466
  2.2667     2.1761     2.0371     1.8584     1.7444     1.547
  1.2638     0.74393    0.19274   -0.0051231 -0.0045448 -0.0044781
 -0.13646    0.041175  -0.01151    0.056577   0.046861   0.044559
  0.081305   0.015736   0.11643    0.12444    0.17418    0.3812
  1.0143   ]",0.6065606113048164
115,-126629559826546119,1.0,"[ 0.42751    0.33791    0.39377    0.31426    0.46302    0.35811
  0.30633    0.42741    0.36589    0.45021    0.47055    0.55274
  0.92625    1.1423     1.2735     1.4464     1.5737     1.9466
  2.2667     2.1761     2.0371     1.8584     1.7444     1.547
  1.2638     0.74393    0.19274   -0.0051231 -0.0045448 -0.0044781
 -0.13646    0.041175  -0.01151    0.056577   0.046861   0.044559
  0.081305   0.015736   0.11643    0.12444    0.17418    0.3812   ]",0.6034092004654397
115,4447450356215481808,1.0,"[ 0.613     0.53934   0.67974   0.59805   0.5599    0.51803   0.55874
  0.43255   0.4608    0.56034   0.53284   0.41778   0.50559   0.3863
  0.40434   0.464     0.40629   0.50318   0.42061   0.465     0.42977
  0.49708   0.49674   0.57921   0.97975   1.2233    1.28      1.3952
  1.6606    1.9279    1.9147    1.8015    1.6786    1.4401    1.274
  1.0705    0.66184   0.3534    0.036911 -0.14405  -0.1815   -0.11408
 -0.14381  -0.085822 -0.10484  -0.17324  -0.21514  -0.13869  -0.13822
 -0.15056  -0.11212  -0.10944  -0.074525  0.01459   0.20798   0.78341
  1.1792    1.1937    1.186     0.98719   0.68892   0.77437   0.82394 ]",0.6015338869516944
115,-570122814766687138,1.0,"[ 0.55623    0.51095    0.59078    0.55924    0.54987    0.48123
  0.47063    0.4402     0.3898     0.36795    0.37278    0.33109
  0.3864     0.34362    0.30252    0.42751    0.33791    0.39377
  0.31426    0.46302    0.35811    0.30633    0.42741    0.36589
  0.45021    0.47055    0.55274    0.92625    1.1423     1.2735
  1.4464     1.5737     1.9466     2.2667     2.1761     2.0371
  1.8584     1.7444     1.547      1.2638     0.74393    0.19274
 -0.0051231 -0.0045448 -0.0044781 -0.13646    0.041175  -0.01151
  0.056577   0.046861   0.044559   0.081305   0.015736   0.11643
  0.12444    0.17418    0.3812     1.0143     1.5735     1.264
  1.4922     1.6146     1.3943   ]",0.6007289887088402
115,3230074558603608275,1.0,"[ 0.49886   0.53231   0.48577   0.45683   0.36415   0.37683   0.22851
  0.27083   0.31742   0.27701   0.25115   0.32267   0.31386   0.1987
  0.27924   0.4601    0.65541   0.9548    1.1857    1.3028    1.3617
  1.5119    1.942     2.2185    2.1502    1.9216    1.5389    1.3165
  1.01      0.66      0.081124 -0.37264  -0.65382  -0.67004  -0.69901
 -0.72759  -0.51988  -0.58415  -0.51971  -0.5861   -0.63567  -0.73378
 -0.64362  -0.45218  -0.48164  -0.54655  -0.31574   0.44011   0.89847 ]",0.5921338093253018
115,3196357102254434263,1.0,"[ 0.40439  0.42607  0.323    0.38253  0.37489  0.24601  0.37031  0.33646
  0.31924  0.2874   0.44056  0.56054  0.67259  0.98308  1.251    1.2321
  1.6038   2.0192   2.3689   2.4217   2.325    2.054    1.7484   1.4691
  0.95481  0.25551 -0.25678 -0.31246 -0.46308 -0.3581  -0.36193 -0.31974
 -0.42845 -0.29101 -0.41659 -0.45404 -0.37164 -0.36892 -0.29578 -0.46945
 -0.32956 -0.23513]",0.5772928639796009
115,-2971997774121738675,2.0,"[ 0.21931   0.24717   0.32794   0.43925   0.42187   0.37572   0.51166
  0.52391   0.48604   0.54633   0.45191   0.44624   0.49454   0.47584
  0.47524   0.43315   0.47668   0.56096   0.66611   0.63      0.5233
  0.58712   0.56062   0.56462   0.54771   0.53759   0.63752   0.57697
  0.62006   0.60089   0.56337   0.69021   0.64727   0.63579   0.61188
  0.61823   0.72458   0.72948   0.69978   0.6234    0.64293   0.59442
  0.41718   0.42701   0.44289   0.45045   0.54689   0.4903    0.33583
  0.28325   0.17664   0.081494  0.29419   0.42002   0.12738  -0.23548
 -0.73877  -1.3845   -2.2082   -2.838    -3.5724   -4.3329   -3.7862  ]",0.6093142141484924
115,3061158865945954670,2.0,"[ 0.20978   0.24058   0.30342   0.40691   0.40911   0.40021   0.50327
  0.52694   0.49503   0.59201   0.6589    0.62892   0.64336   0.59732
  0.56624   0.65534   0.57959   0.51979   0.61782   0.56985   0.53663
  0.63043   0.7086    0.71163   0.67107   0.69705   0.66256   0.61202
  0.63383   0.57097   0.58488   0.71952   0.77419   0.82069   0.8468
  0.74508   0.6635    0.69169   0.68832   0.63153   0.59849   0.51183
  0.41685   0.41177   0.42119   0.48796   0.52923   0.41638   0.34943
  0.28449   0.074071 -0.026031  0.074739  0.052329 -0.20267  -0.60569
 -1.0615   -1.5967   -2.3285   -2.8501   -3.6446   -4.2126   -3.7954  ]",0.6059922252606611
115,5342755680982551255,2.0,"[ 0.38255   0.43432   0.50228   0.46486   0.48777   0.50818   0.51848
  0.58483   0.58301   0.60661   0.66843   0.62981   0.59085   0.63353
  0.64319   0.60182   0.62748   0.68975   0.64866   0.62257   0.67918
  0.68448   0.66976   0.66921   0.64791   0.68783   0.74642   0.74715
  0.72966   0.76205   0.79441   0.77148   0.86291   0.98926   0.90029
  0.90933   0.98163   0.94048   1.0168    0.99817   0.97465   0.85498
  0.70582   0.71021   0.66921   0.70942   0.62971   0.46404   0.38569
  0.27878   0.23578   0.35621   0.57384   0.69653   0.47578  -0.054265
 -0.6656   -1.3203   -2.0226   -2.7236   -3.4205   -3.7437   -2.9587  ]",0.5971839115908665
115,4111049705793807953,2.0,"[ 0.52397  0.48095  0.53864  0.50063  0.46435  0.54105  0.49992  0.51171
  0.51686  0.51768  0.47781  0.49316  0.54949  0.50214  0.51849  0.49813
  0.55063  0.48548  0.5141   0.57033  0.5177   0.49191  0.53324  0.5736
  0.60214  0.65623  0.66825  0.6726   0.61006  0.6515   0.71082  0.74108
  0.77293  0.76716  0.72947  0.72177  0.69505  0.76439  0.7457   0.75343
  0.78552  0.69359  0.6378   0.46602  0.41852  0.51012  0.49948  0.46786
  0.37616  0.314    0.26521  0.34446  0.58416  0.67477  0.47678 -0.16244
 -0.93503 -1.6543  -2.4342  -3.4722  -4.2808  -4.6294  -3.7942 ]",0.5958481022812472
115,-3915139049029445865,2.0,"[ 0.67202    0.62691    0.62784    0.69671    0.70888    0.62609
  0.57606    0.62016    0.67202    0.67614    0.66872    0.67706
  0.69045    0.67136    0.62061    0.63162    0.69045    0.67564
  0.61422    0.60209    0.63516    0.6569     0.64192    0.63726
  0.63516    0.60782    0.58182    0.5128     0.41403    0.38188
  0.3624     0.33728    0.35875    0.39591    0.36299    0.21228
  0.11918    0.11356   -0.0059556 -0.022287   0.082326  -0.073509
 -0.37167   -0.68286   -1.2261    -1.8398    -2.2403    -2.5631
 -3.0873   ]",0.5715522603999527
115,-5117733749761246981,2.0,"[ 0.57606    0.62016    0.67202    0.67614    0.66872    0.67706
  0.69045    0.67136    0.62061    0.63162    0.69045    0.67564
  0.61422    0.60209    0.63516    0.6569     0.64192    0.63726
  0.63516    0.60782    0.58182    0.5128     0.41403    0.38188
  0.3624     0.33728    0.35875    0.39591    0.36299    0.21228
  0.11918    0.11356   -0.0059556 -0.022287   0.082326  -0.073509
 -0.37167   -0.68286   -1.2261    -1.8398    -2.2403    -2.5631   ]",0.566606214185162
115,461446115881509236,2.0,"[ 0.59201   0.6589    0.62892   0.64336   0.59732   0.56624   0.65534
  0.57959   0.51979   0.61782   0.56985   0.53663   0.63043   0.7086
  0.71163   0.67107   0.69705   0.66256   0.61202   0.63383   0.57097
  0.58488   0.71952   0.77419   0.82069   0.8468    0.74508   0.6635
  0.69169   0.68832   0.63153   0.59849   0.51183   0.41685   0.41177
  0.42119   0.48796   0.52923   0.41638   0.34943   0.28449   0.074071
 -0.026031  0.074739  0.052329 -0.20267  -0.60569  -1.0615   -1.5967
 -2.3285   -2.8501   -3.6446   -4.2126   -3.7954   -3.7114   -1.6273  ]",0.5661140229640257
115,-1177520625259297467,2.0,"[ 0.54633   0.45191   0.44624   0.49454   0.47584   0.47524   0.43315
  0.47668   0.56096   0.66611   0.63      0.5233    0.58712   0.56062
  0.56462   0.54771   0.53759   0.63752   0.57697   0.62006   0.60089
  0.56337   0.69021   0.64727   0.63579   0.61188   0.61823   0.72458
  0.72948   0.69978   0.6234    0.64293   0.59442   0.41718   0.42701
  0.44289   0.45045   0.54689   0.4903    0.33583   0.28325   0.17664
  0.081494  0.29419   0.42002   0.12738  -0.23548  -0.73877  -1.3845
 -2.2082   -2.838    -3.5724   -4.3329   -3.7862   -3.7442   -1.8445  ]",0.5645726464848014
115,-3978087584922850221,2.0,"[ 0.51768  0.47781  0.49316  0.54949  0.50214  0.51849  0.49813  0.55063
  0.48548  0.5141   0.57033  0.5177   0.49191  0.53324  0.5736   0.60214
  0.65623  0.66825  0.6726   0.61006  0.6515   0.71082  0.74108  0.77293
  0.76716  0.72947  0.72177  0.69505  0.76439  0.7457   0.75343  0.78552
  0.69359  0.6378   0.46602  0.41852  0.51012  0.49948  0.46786  0.37616
  0.314    0.26521  0.34446  0.58416  0.67477  0.47678 -0.16244 -0.93503
 -1.6543  -2.4342  -3.4722  -4.2808  -4.6294  -3.7942  -2.8515  -1.7435 ]",0.5518434277496089
115,-8070925988445124442,2.0,"[ 0.60661   0.66843   0.62981   0.59085   0.63353   0.64319   0.60182
  0.62748   0.68975   0.64866   0.62257   0.67918   0.68448   0.66976
  0.66921   0.64791   0.68783   0.74642   0.74715   0.72966   0.76205
  0.79441   0.77148   0.86291   0.98926   0.90029   0.90933   0.98163
  0.94048   1.0168    0.99817   0.97465   0.85498   0.70582   0.71021
  0.66921   0.70942   0.62971   0.46404   0.38569   0.27878   0.23578
  0.35621   0.57384   0.69653   0.47578  -0.054265 -0.6656   -1.3203
 -2.0226   -2.7236   -3.4205   -3.7437   -2.9587   -2.305    -0.81526 ]",0.5470716844677933
115,5526369312300129843,3.0,"[-0.15851 -0.22513 -0.28048 -0.3448  -0.40156 -0.44993 -0.49698 -0.51519
 -0.54524 -0.53104 -0.54625 -0.53059 -0.53544 -0.53458 -0.57296 -0.65439
 -0.7304  -0.83441 -0.9395  -1.0313  -1.1134  -1.2022  -1.2743  -1.3701
 -1.4371  -1.4824  -1.5185  -1.5484  -1.553   -1.5801  -1.5893  -1.6106
 -1.6112  -1.6383  -1.6578 ]",0.32367700314030173
115,-8900306605093009028,3.0,"[-0.65243   -0.047472   0.11974    0.066969   0.063971   0.06216
  0.061695   0.025422   0.047443   0.064729   0.049622   0.087334
  0.0055585  0.025522   0.0046054  0.006875  -0.043205  -0.098749
 -0.079498  -0.14078   -0.15381   -0.2061    -0.23356   -0.23681
 -0.26657   -0.33556   -0.34664   -0.35162   -0.37713   -0.38966
 -0.49398   -0.39813   -0.39184   -0.40463   -0.37597   -0.34198
 -0.3146    -0.33439   -0.26914   -0.17846   -0.10096   -0.059928 ]",0.3031035503750992
115,-8066166117951026388,3.0,"[ 0.70462   0.66434   0.6619    0.66903   0.63731   0.61679   0.63322
  0.57991   0.56743   0.54002   0.51774   0.48266   0.47544   0.44408
  0.39468   0.34717   0.30811   0.253     0.17474   0.11623   0.077981
  0.020247 -0.039692 -0.10915  -0.15851  -0.22513  -0.28048  -0.3448
 -0.40156  -0.44993  -0.49698  -0.51519  -0.54524  -0.53104  -0.54625 ]",0.2942091294166298
115,-3826551439608133924,3.0,"[0.87867 0.98836 1.0032  0.9884  0.99262 0.99769 1.0052  0.97305 0.98033
 0.98363 0.97771 0.95465 0.96208 0.94235 0.93279 0.91299 0.91225 0.89453
 0.87512 0.86323 0.84948 0.86003 0.83282 0.79954 0.81264 0.79402 0.78137
 0.78951 0.78701 0.78408 0.78816 0.7745  0.78253 0.77934 0.79264]",0.2920196972070104
115,6344361334172481140,3.0,"[1.0032  0.9884  0.99262 0.99769 1.0052  0.97305 0.98033 0.98363 0.97771
 0.95465 0.96208 0.94235 0.93279 0.91299 0.91225 0.89453 0.87512 0.86323
 0.84948 0.86003 0.83282 0.79954 0.81264 0.79402 0.78137 0.78951 0.78701
 0.78408 0.78816 0.7745  0.78253 0.77934 0.79264 0.80085 0.79873 0.79414
 0.81706 0.83015 0.83037 0.86837 0.87969 0.86307]",0.2752319345471268
115,-5488109123479202882,3.0,"[ 0.70351   0.70462   0.66434   0.6619    0.66903   0.63731   0.61679
  0.63322   0.57991   0.56743   0.54002   0.51774   0.48266   0.47544
  0.44408   0.39468   0.34717   0.30811   0.253     0.17474   0.11623
  0.077981  0.020247 -0.039692 -0.10915  -0.15851  -0.22513  -0.28048 ]",0.2736733248205796
115,-2559327942772542415,3.0,"[ 0.063971   0.06216    0.061695   0.025422   0.047443   0.064729
  0.049622   0.087334   0.0055585  0.025522   0.0046054  0.006875
 -0.043205  -0.098749  -0.079498  -0.14078   -0.15381   -0.2061
 -0.23356   -0.23681   -0.26657   -0.33556   -0.34664   -0.35162
 -0.37713   -0.38966   -0.49398   -0.39813  ]",0.25624933212440837
115,-77377730454519461,3.0,"[0.75595 0.34691 0.3297  0.30211 0.42292 0.61064 0.77801 0.81253 0.87867
 0.98836 1.0032  0.9884  0.99262 0.99769 1.0052  0.97305 0.98033 0.98363
 0.97771 0.95465 0.96208 0.94235 0.93279 0.91299 0.91225 0.89453 0.87512
 0.86323 0.84948 0.86003 0.83282 0.79954 0.81264 0.79402 0.78137 0.78951
 0.78701 0.78408 0.78816 0.7745  0.78253 0.77934 0.79264 0.80085 0.79873
 0.79414 0.81706 0.83015 0.83037]",0.24842901474701953
115,1739882260065841973,3.0,"[-0.3448  -0.40156 -0.44993 -0.49698 -0.51519 -0.54524 -0.53104 -0.54625
 -0.53059 -0.53544 -0.53458 -0.57296 -0.65439 -0.7304  -0.83441 -0.9395
 -1.0313  -1.1134  -1.2022  -1.2743  -1.3701  -1.4371  -1.4824  -1.5185
 -1.5484  -1.553   -1.5801  -1.5893 ]",0.24779100258664263
115,5415505201629159317,3.0,"[ 0.63322   0.57991   0.56743   0.54002   0.51774   0.48266   0.47544
  0.44408   0.39468   0.34717   0.30811   0.253     0.17474   0.11623
  0.077981  0.020247 -0.039692 -0.10915  -0.15851  -0.22513  -0.28048
 -0.3448   -0.40156  -0.44993  -0.49698  -0.51519  -0.54524  -0.53104 ]",0.2407498848272884
115,2042528436174485857,4.0,"[-0.22134  -0.22922  -0.11299  -0.17586  -0.1984   -0.20867  -0.26082
 -0.31456  -0.29684  -0.31922  -0.41622  -0.38806  -0.4118   -0.45481
 -0.39494  -0.43113  -0.55199  -0.53701  -0.58002  -0.60555  -0.61457
 -0.67265  -0.69786  -0.74814  -0.74     -0.80661  -0.85183  -0.86801
 -0.88446  -0.83901  -0.97031  -0.93442  -0.9814   -1.0503   -0.84967
 -0.83561  -0.91712  -0.89776  -0.8957   -0.90488  -0.90452  -0.75911
 -0.75635  -0.7602   -0.60017  -0.53983  -0.43803  -0.41939  -0.42147
 -0.36325  -0.3165   -0.19587  -0.15864  -0.078189 -0.051712 -0.022757]",0.29771575646414955
115,4925723307672444395,4.0,"[0.44691  0.45795  0.3488   0.4495   0.48829  0.45365  0.51162  0.45629
 0.37771  0.36212  0.34745  0.41931  0.47779  0.40865  0.3877   0.37553
 0.2871   0.28431  0.31379  0.26691  0.22667  0.19148  0.21981  0.30755
 0.2361   0.16013  0.21514  0.21981  0.18558  0.15361  0.12263  0.11122
 0.090821 0.073101 0.060884 0.043457 0.091671 0.17681  0.13957  0.059995
 0.11417  0.18802  0.17681  0.18806  0.23255  0.24954  0.26789  0.24131
 0.2388   0.37332  0.40005  0.31549  0.3703   0.46425  0.5193   0.55024 ]",0.29606823161160467
115,-393601981402582742,4.0,"[0.3488   0.4495   0.48829  0.45365  0.51162  0.45629  0.37771  0.36212
 0.34745  0.41931  0.47779  0.40865  0.3877   0.37553  0.2871   0.28431
 0.31379  0.26691  0.22667  0.19148  0.21981  0.30755  0.2361   0.16013
 0.21514  0.21981  0.18558  0.15361  0.12263  0.11122  0.090821 0.073101
 0.060884 0.043457 0.091671 0.17681  0.13957  0.059995 0.11417  0.18802
 0.17681  0.18806  0.23255  0.24954  0.26789  0.24131  0.2388   0.37332
 0.40005  0.31549  0.3703   0.46425  0.5193   0.55024  0.47515  0.4348
 0.50969  0.53086  0.57909  0.63485  0.62828  0.63844  0.57647 ]",0.2886243987607258
115,-8011593827859491070,4.0,"[0.3488   0.4495   0.48829  0.45365  0.51162  0.45629  0.37771  0.36212
 0.34745  0.41931  0.47779  0.40865  0.3877   0.37553  0.2871   0.28431
 0.31379  0.26691  0.22667  0.19148  0.21981  0.30755  0.2361   0.16013
 0.21514  0.21981  0.18558  0.15361  0.12263  0.11122  0.090821 0.073101
 0.060884 0.043457 0.091671 0.17681  0.13957  0.059995 0.11417  0.18802
 0.17681  0.18806 ]",0.28130128835450663
115,3119736319766485656,4.0,"[0.37771  0.36212  0.34745  0.41931  0.47779  0.40865  0.3877   0.37553
 0.2871   0.28431  0.31379  0.26691  0.22667  0.19148  0.21981  0.30755
 0.2361   0.16013  0.21514  0.21981  0.18558  0.15361  0.12263  0.11122
 0.090821 0.073101 0.060884 0.043457 0.091671 0.17681  0.13957  0.059995
 0.11417  0.18802  0.17681  0.18806  0.23255  0.24954  0.26789  0.24131
 0.2388   0.37332  0.40005  0.31549  0.3703   0.46425  0.5193   0.55024
 0.47515 ]",0.27258928566652024
115,-2780411099879832494,4.0,"[-0.11299 -0.17586 -0.1984  -0.20867 -0.26082 -0.31456 -0.29684 -0.31922
 -0.41622 -0.38806 -0.4118  -0.45481 -0.39494 -0.43113 -0.55199 -0.53701
 -0.58002 -0.60555 -0.61457 -0.67265 -0.69786 -0.74814 -0.74    -0.80661
 -0.85183 -0.86801 -0.88446 -0.83901 -0.97031 -0.93442 -0.9814  -1.0503
 -0.84967 -0.83561 -0.91712 -0.89776 -0.8957  -0.90488 -0.90452 -0.75911
 -0.75635 -0.7602 ]",0.272047725013352
115,-4217037597788086488,4.0,"[-0.11299  -0.17586  -0.1984   -0.20867  -0.26082  -0.31456  -0.29684
 -0.31922  -0.41622  -0.38806  -0.4118   -0.45481  -0.39494  -0.43113
 -0.55199  -0.53701  -0.58002  -0.60555  -0.61457  -0.67265  -0.69786
 -0.74814  -0.74     -0.80661  -0.85183  -0.86801  -0.88446  -0.83901
 -0.97031  -0.93442  -0.9814   -1.0503   -0.84967  -0.83561  -0.91712
 -0.89776  -0.8957   -0.90488  -0.90452  -0.75911  -0.75635  -0.7602
 -0.60017  -0.53983  -0.43803  -0.41939  -0.42147  -0.36325  -0.3165
 -0.19587  -0.15864  -0.078189 -0.051712 -0.022757  0.047425  0.054317
  0.053184  0.071472  0.13562   0.12401   0.18909   0.20398   0.15293 ]",0.26677517348527735
115,8499924683213636122,4.0,"[-0.15604    0.16669    0.0050008 -0.062559  -0.025141   0.073142
 -0.039686  -0.007199   0.010133   0.012651  -0.06684   -0.091333
 -0.11825   -0.076373  -0.10481   -0.11586   -0.22134   -0.22922
 -0.11299   -0.17586   -0.1984    -0.20867   -0.26082   -0.31456
 -0.29684   -0.31922   -0.41622   -0.38806   -0.4118    -0.45481
 -0.39494   -0.43113   -0.55199   -0.53701   -0.58002   -0.60555
 -0.61457   -0.67265   -0.69786   -0.74814   -0.74      -0.80661
 -0.85183   -0.86801   -0.88446   -0.83901   -0.97031   -0.93442
 -0.9814   ]",0.21788653586043946
115,2434515322395278869,4.0,"[0.48829  0.45365  0.51162  0.45629  0.37771  0.36212  0.34745  0.41931
 0.47779  0.40865  0.3877   0.37553  0.2871   0.28431  0.31379  0.26691
 0.22667  0.19148  0.21981  0.30755  0.2361   0.16013  0.21514  0.21981
 0.18558  0.15361  0.12263  0.11122  0.090821 0.073101 0.060884 0.043457
 0.091671 0.17681  0.13957 ]",0.21739675251022403
115,4118840273040539646,4.0,"[0.47779  0.40865  0.3877   0.37553  0.2871   0.28431  0.31379  0.26691
 0.22667  0.19148  0.21981  0.30755  0.2361   0.16013  0.21514  0.21981
 0.18558  0.15361  0.12263  0.11122  0.090821 0.073101 0.060884 0.043457
 0.091671 0.17681  0.13957  0.059995 0.11417  0.18802  0.17681  0.18806
 0.23255  0.24954  0.26789  0.24131  0.2388   0.37332  0.40005  0.31549
 0.3703   0.46425 ]",0.2152999387948733
170,-2592706657845840442,1.0,"[ 0.66439  0.60376  0.58133  0.5437   0.60798  0.575    0.58186  0.4533
  0.54875  0.46008  0.40378  0.43669  0.3032   0.52221  0.42012  0.40439
  0.42607  0.323    0.38253  0.37489  0.24601  0.37031  0.33646  0.31924
  0.2874   0.44056  0.56054  0.67259  0.98308  1.251    1.2321   1.6038
  2.0192   2.3689   2.4217   2.325    2.054    1.7484   1.4691   0.95481
  0.25551 -0.25678 -0.31246 -0.46308 -0.3581  -0.36193 -0.31974 -0.42845
 -0.29101 -0.41659 -0.45404 -0.37164 -0.36892 -0.29578 -0.46945 -0.32956
 -0.23513  0.57473  1.0586   0.88663  1.2658   0.89578 -0.01588]",0.51280553326468
170,863294155201537606,1.0,"[ 0.36795    0.37278    0.33109    0.3864     0.34362    0.30252
  0.42751    0.33791    0.39377    0.31426    0.46302    0.35811
  0.30633    0.42741    0.36589    0.45021    0.47055    0.55274
  0.92625    1.1423     1.2735     1.4464     1.5737     1.9466
  2.2667     2.1761     2.0371     1.8584     1.7444     1.547
  1.2638     0.74393    0.19274   -0.0051231 -0.0045448 -0.0044781
 -0.13646    0.041175  -0.01151    0.056577   0.046861   0.044559
  0.081305   0.015736   0.11643    0.12444    0.17418    0.3812
  1.0143   ]",0.49308035412886314
170,-1537992777720823700,1.0,"[ 0.46008  0.40378  0.43669  0.3032   0.52221  0.42012  0.40439  0.42607
  0.323    0.38253  0.37489  0.24601  0.37031  0.33646  0.31924  0.2874
  0.44056  0.56054  0.67259  0.98308  1.251    1.2321   1.6038   2.0192
  2.3689   2.4217   2.325    2.054    1.7484   1.4691   0.95481  0.25551
 -0.25678 -0.31246 -0.46308 -0.3581  -0.36193 -0.31974 -0.42845 -0.29101
 -0.41659 -0.45404 -0.37164 -0.36892 -0.29578 -0.46945 -0.32956 -0.23513
  0.57473]",0.49240820116518436
170,-5768321124922556522,1.0,"[ 0.7128    0.62387   0.70911   0.7534    0.62813   0.72146   0.63358
  0.55028   0.44896   0.49886   0.53231   0.48577   0.45683   0.36415
  0.37683   0.22851   0.27083   0.31742   0.27701   0.25115   0.32267
  0.31386   0.1987    0.27924   0.4601    0.65541   0.9548    1.1857
  1.3028    1.3617    1.5119    1.942     2.2185    2.1502    1.9216
  1.5389    1.3165    1.01      0.66      0.081124 -0.37264  -0.65382
 -0.67004  -0.69901  -0.72759  -0.51988  -0.58415  -0.51971  -0.5861
 -0.63567  -0.73378  -0.64362  -0.45218  -0.48164  -0.54655  -0.31574
  0.44011   0.89847   1.2217    1.5602    1.3209    1.1742   -0.052122]",0.4840678814528285
170,-126629559826546119,1.0,"[ 0.42751    0.33791    0.39377    0.31426    0.46302    0.35811
  0.30633    0.42741    0.36589    0.45021    0.47055    0.55274
  0.92625    1.1423     1.2735     1.4464     1.5737     1.9466
  2.2667     2.1761     2.0371     1.8584     1.7444     1.547
  1.2638     0.74393    0.19274   -0.0051231 -0.0045448 -0.0044781
 -0.13646    0.041175  -0.01151    0.056577   0.046861   0.044559
  0.081305   0.015736   0.11643    0.12444    0.17418    0.3812   ]",0.48346956193536794
170,-570122814766687138,1.0,"[ 0.55623    0.51095    0.59078    0.55924    0.54987    0.48123
  0.47063    0.4402     0.3898     0.36795    0.37278    0.33109
  0.3864     0.34362    0.30252    0.42751    0.33791    0.39377
  0.31426    0.46302    0.35811    0.30633    0.42741    0.36589
  0.45021    0.47055    0.55274    0.92625    1.1423     1.2735
  1.4464     1.5737     1.9466     2.2667     2.1761     2.0371
  1.8584     1.7444     1.547      1.2638     0.74393    0.19274
 -0.0051231 -0.0045448 -0.0044781 -0.13646    0.041175  -0.01151
  0.056577   0.046861   0.044559   0.081305   0.015736   0.11643
  0.12444    0.17418    0.3812     1.0143     1.5735     1.264
  1.4922     1.6146     1.3943   ]",0.481718007998137
170,7832656574371253646,1.0,"[ 0.56034   0.53284   0.41778   0.50559   0.3863    0.40434   0.464
  0.40629   0.50318   0.42061   0.465     0.42977   0.49708   0.49674
  0.57921   0.97975   1.2233    1.28      1.3952    1.6606    1.9279
  1.9147    1.8015    1.6786    1.4401    1.274     1.0705    0.66184
  0.3534    0.036911 -0.14405  -0.1815   -0.11408  -0.14381  -0.085822
 -0.10484  -0.17324  -0.21514  -0.13869  -0.13822  -0.15056  -0.11212
 -0.10944  -0.074525  0.01459   0.20798   0.78341   1.1792    1.1937  ]",0.4669140104193129
170,4447450356215481808,1.0,"[ 0.613     0.53934   0.67974   0.59805   0.5599    0.51803   0.55874
  0.43255   0.4608    0.56034   0.53284   0.41778   0.50559   0.3863
  0.40434   0.464     0.40629   0.50318   0.42061   0.465     0.42977
  0.49708   0.49674   0.57921   0.97975   1.2233    1.28      1.3952
  1.6606    1.9279    1.9147    1.8015    1.6786    1.4401    1.274
  1.0705    0.66184   0.3534    0.036911 -0.14405  -0.1815   -0.11408
 -0.14381  -0.085822 -0.10484  -0.17324  -0.21514  -0.13869  -0.13822
 -0.15056  -0.11212  -0.10944  -0.074525  0.01459   0.20798   0.78341
  1.1792    1.1937    1.186     0.98719   0.68892   0.77437   0.82394 ]",0.4661321371972998
170,-7858354817535408611,1.0,"[ 0.45767    0.42686    0.42252    0.25592    0.35176    0.41193
  0.42178    0.36231    0.43731    0.45346    0.43371    0.41423
  0.4875     0.47627    0.5887     0.92192    0.99609    1.2748
  1.6255     1.5026     1.2632     1.1405     0.95372    1.0248
  1.121      0.84553    0.53038    0.22791    0.0058926 -0.018944
  0.029745  -0.026192   0.078461   0.09654    0.010432   0.064297
  0.16534    0.10752    0.15544    0.17041    0.28936    0.70013  ]",0.4579990734800336
170,3196357102254434263,1.0,"[ 0.40439  0.42607  0.323    0.38253  0.37489  0.24601  0.37031  0.33646
  0.31924  0.2874   0.44056  0.56054  0.67259  0.98308  1.251    1.2321
  1.6038   2.0192   2.3689   2.4217   2.325    2.054    1.7484   1.4691
  0.95481  0.25551 -0.25678 -0.31246 -0.46308 -0.3581  -0.36193 -0.31974
 -0.42845 -0.29101 -0.41659 -0.45404 -0.37164 -0.36892 -0.29578 -0.46945
 -0.32956 -0.23513]",0.45725690792065643
170,-2971997774121738675,2.0,"[ 0.21931   0.24717   0.32794   0.43925   0.42187   0.37572   0.51166
  0.52391   0.48604   0.54633   0.45191   0.44624   0.49454   0.47584
  0.47524   0.43315   0.47668   0.56096   0.66611   0.63      0.5233
  0.58712   0.56062   0.56462   0.54771   0.53759   0.63752   0.57697
  0.62006   0.60089   0.56337   0.69021   0.64727   0.63579   0.61188
  0.61823   0.72458   0.72948   0.69978   0.6234    0.64293   0.59442
  0.41718   0.42701   0.44289   0.45045   0.54689   0.4903    0.33583
  0.28325   0.17664   0.081494  0.29419   0.42002   0.12738  -0.23548
 -0.73877  -1.3845   -2.2082   -2.838    -3.5724   -4.3329   -3.7862  ]",0.5766482885876425
170,3061158865945954670,2.0,"[ 0.20978   0.24058   0.30342   0.40691   0.40911   0.40021   0.50327
  0.52694   0.49503   0.59201   0.6589    0.62892   0.64336   0.59732
  0.56624   0.65534   0.57959   0.51979   0.61782   0.56985   0.53663
  0.63043   0.7086    0.71163   0.67107   0.69705   0.66256   0.61202
  0.63383   0.57097   0.58488   0.71952   0.77419   0.82069   0.8468
  0.74508   0.6635    0.69169   0.68832   0.63153   0.59849   0.51183
  0.41685   0.41177   0.42119   0.48796   0.52923   0.41638   0.34943
  0.28449   0.074071 -0.026031  0.074739  0.052329 -0.20267  -0.60569
 -1.0615   -1.5967   -2.3285   -2.8501   -3.6446   -4.2126   -3.7954  ]",0.5721007549484828
170,5342755680982551255,2.0,"[ 0.38255   0.43432   0.50228   0.46486   0.48777   0.50818   0.51848
  0.58483   0.58301   0.60661   0.66843   0.62981   0.59085   0.63353
  0.64319   0.60182   0.62748   0.68975   0.64866   0.62257   0.67918
  0.68448   0.66976   0.66921   0.64791   0.68783   0.74642   0.74715
  0.72966   0.76205   0.79441   0.77148   0.86291   0.98926   0.90029
  0.90933   0.98163   0.94048   1.0168    0.99817   0.97465   0.85498
  0.70582   0.71021   0.66921   0.70942   0.62971   0.46404   0.38569
  0.27878   0.23578   0.35621   0.57384   0.69653   0.47578  -0.054265
 -0.6656   -1.3203   -2.0226   -2.7236   -3.4205   -3.7437   -2.9587  ]",0.5665520778271614
170,4111049705793807953,2.0,"[ 0.52397  0.48095  0.53864  0.50063  0.46435  0.54105  0.49992  0.51171
  0.51686  0.51768  0.47781  0.49316  0.54949  0.50214  0.51849  0.49813
  0.55063  0.48548  0.5141   0.57033  0.5177   0.49191  0.53324  0.5736
  0.60214  0.65623  0.66825  0.6726   0.61006  0.6515   0.71082  0.74108
  0.77293  0.76716  0.72947  0.72177  0.69505  0.76439  0.7457   0.75343
  0.78552  0.69359  0.6378   0.46602  0.41852  0.51012  0.49948  0.46786
  0.37616  0.314    0.26521  0.34446  0.58416  0.67477  0.47678 -0.16244
 -0.93503 -1.6543  -2.4342  -3.4722  -4.2808  -4.6294  -3.7942 ]",0.5626258640557847
170,-3915139049029445865,2.0,"[ 0.67202    0.62691    0.62784    0.69671    0.70888    0.62609
  0.57606    0.62016    0.67202    0.67614    0.66872    0.67706
  0.69045    0.67136    0.62061    0.63162    0.69045    0.67564
  0.61422    0.60209    0.63516    0.6569     0.64192    0.63726
  0.63516    0.60782    0.58182    0.5128     0.41403    0.38188
  0.3624     0.33728    0.35875    0.39591    0.36299    0.21228
  0.11918    0.11356   -0.0059556 -0.022287   0.082326  -0.073509
 -0.37167   -0.68286   -1.2261    -1.8398    -2.2403    -2.5631
 -3.0873   ]",0.5347565151976111
170,-5117733749761246981,2.0,"[ 0.57606    0.62016    0.67202    0.67614    0.66872    0.67706
  0.69045    0.67136    0.62061    0.63162    0.69045    0.67564
  0.61422    0.60209    0.63516    0.6569     0.64192    0.63726
  0.63516    0.60782    0.58182    0.5128     0.41403    0.38188
  0.3624     0.33728    0.35875    0.39591    0.36299    0.21228
  0.11918    0.11356   -0.0059556 -0.022287   0.082326  -0.073509
 -0.37167   -0.68286   -1.2261    -1.8398    -2.2403    -2.5631   ]",0.5315100983565143
170,-1177520625259297467,2.0,"[ 0.54633   0.45191   0.44624   0.49454   0.47584   0.47524   0.43315
  0.47668   0.56096   0.66611   0.63      0.5233    0.58712   0.56062
  0.56462   0.54771   0.53759   0.63752   0.57697   0.62006   0.60089
  0.56337   0.69021   0.64727   0.63579   0.61188   0.61823   0.72458
  0.72948   0.69978   0.6234    0.64293   0.59442   0.41718   0.42701
  0.44289   0.45045   0.54689   0.4903    0.33583   0.28325   0.17664
  0.081494  0.29419   0.42002   0.12738  -0.23548  -0.73877  -1.3845
 -2.2082   -2.838    -3.5724   -4.3329   -3.7862   -3.7442   -1.8445  ]",0.5272994068953205
170,461446115881509236,2.0,"[ 0.59201   0.6589    0.62892   0.64336   0.59732   0.56624   0.65534
  0.57959   0.51979   0.61782   0.56985   0.53663   0.63043   0.7086
  0.71163   0.67107   0.69705   0.66256   0.61202   0.63383   0.57097
  0.58488   0.71952   0.77419   0.82069   0.8468    0.74508   0.6635
  0.69169   0.68832   0.63153   0.59849   0.51183   0.41685   0.41177
  0.42119   0.48796   0.52923   0.41638   0.34943   0.28449   0.074071
 -0.026031  0.074739  0.052329 -0.20267  -0.60569  -1.0615   -1.5967
 -2.3285   -2.8501   -3.6446   -4.2126   -3.7954   -3.7114   -1.6273  ]",0.5262420024464933
170,-3978087584922850221,2.0,"[ 0.51768  0.47781  0.49316  0.54949  0.50214  0.51849  0.49813  0.55063
  0.48548  0.5141   0.57033  0.5177   0.49191  0.53324  0.5736   0.60214
  0.65623  0.66825  0.6726   0.61006  0.6515   0.71082  0.74108  0.77293
  0.76716  0.72947  0.72177  0.69505  0.76439  0.7457   0.75343  0.78552
  0.69359  0.6378   0.46602  0.41852  0.51012  0.49948  0.46786  0.37616
  0.314    0.26521  0.34446  0.58416  0.67477  0.47678 -0.16244 -0.93503
 -1.6543  -2.4342  -3.4722  -4.2808  -4.6294  -3.7942  -2.8515  -1.7435 ]",0.5167025018598197
170,-8070925988445124442,2.0,"[ 0.60661   0.66843   0.62981   0.59085   0.63353   0.64319   0.60182
  0.62748   0.68975   0.64866   0.62257   0.67918   0.68448   0.66976
  0.66921   0.64791   0.68783   0.74642   0.74715   0.72966   0.76205
  0.79441   0.77148   0.86291   0.98926   0.90029   0.90933   0.98163
  0.94048   1.0168    0.99817   0.97465   0.85498   0.70582   0.71021
  0.66921   0.70942   0.62971   0.46404   0.38569   0.27878   0.23578
  0.35621   0.57384   0.69653   0.47578  -0.054265 -0.6656   -1.3203
 -2.0226   -2.7236   -3.4205   -3.7437   -2.9587   -2.305    -0.81526 ]",0.5097038779633334
170,5526369312300129843,3.0,"[-0.15851 -0.22513 -0.28048 -0.3448  -0.40156 -0.44993 -0.49698 -0.51519
 -0.54524 -0.53104 -0.54625 -0.53059 -0.53544 -0.53458 -0.57296 -0.65439
 -0.7304  -0.83441 -0.9395  -1.0313  -1.1134  -1.2022  -1.2743  -1.3701
 -1.4371  -1.4824  -1.5185  -1.5484  -1.553   -1.5801  -1.5893  -1.6106
 -1.6112  -1.6383  -1.6578 ]",0.31265186436250714
170,-8066166117951026388,3.0,"[ 0.70462   0.66434   0.6619    0.66903   0.63731   0.61679   0.63322
  0.57991   0.56743   0.54002   0.51774   0.48266   0.47544   0.44408
  0.39468   0.34717   0.30811   0.253     0.17474   0.11623   0.077981
  0.020247 -0.039692 -0.10915  -0.15851  -0.22513  -0.28048  -0.3448
 -0.40156  -0.44993  -0.49698  -0.51519  -0.54524  -0.53104  -0.54625 ]",0.283580480090222
170,-8900306605093009028,3.0,"[-0.65243   -0.047472   0.11974    0.066969   0.063971   0.06216
  0.061695   0.025422   0.047443   0.064729   0.049622   0.087334
  0.0055585  0.025522   0.0046054  0.006875  -0.043205  -0.098749
 -0.079498  -0.14078   -0.15381   -0.2061    -0.23356   -0.23681
 -0.26657   -0.33556   -0.34664   -0.35162   -0.37713   -0.38966
 -0.49398   -0.39813   -0.39184   -0.40463   -0.37597   -0.34198
 -0.3146    -0.33439   -0.26914   -0.17846   -0.10096   -0.059928 ]",0.28101059574794063
170,-3826551439608133924,3.0,"[0.87867 0.98836 1.0032  0.9884  0.99262 0.99769 1.0052  0.97305 0.98033
 0.98363 0.97771 0.95465 0.96208 0.94235 0.93279 0.91299 0.91225 0.89453
 0.87512 0.86323 0.84948 0.86003 0.83282 0.79954 0.81264 0.79402 0.78137
 0.78951 0.78701 0.78408 0.78816 0.7745  0.78253 0.77934 0.79264]",0.2685703695631688
170,-5488109123479202882,3.0,"[ 0.70351   0.70462   0.66434   0.6619    0.66903   0.63731   0.61679
  0.63322   0.57991   0.56743   0.54002   0.51774   0.48266   0.47544
  0.44408   0.39468   0.34717   0.30811   0.253     0.17474   0.11623
  0.077981  0.020247 -0.039692 -0.10915  -0.15851  -0.22513  -0.28048 ]",0.26561453229975723
170,6344361334172481140,3.0,"[1.0032  0.9884  0.99262 0.99769 1.0052  0.97305 0.98033 0.98363 0.97771
 0.95465 0.96208 0.94235 0.93279 0.91299 0.91225 0.89453 0.87512 0.86323
 0.84948 0.86003 0.83282 0.79954 0.81264 0.79402 0.78137 0.78951 0.78701
 0.78408 0.78816 0.7745  0.78253 0.77934 0.79264 0.80085 0.79873 0.79414
 0.81706 0.83015 0.83037 0.86837 0.87969 0.86307]",0.2524640164565707
170,-2559327942772542415,3.0,"[ 0.063971   0.06216    0.061695   0.025422   0.047443   0.064729
  0.049622   0.087334   0.0055585  0.025522   0.0046054  0.006875
 -0.043205  -0.098749  -0.079498  -0.14078   -0.15381   -0.2061
 -0.23356   -0.23681   -0.26657   -0.33556   -0.34664   -0.35162
 -0.37713   -0.38966   -0.49398   -0.39813  ]",0.24053855284120826
170,1739882260065841973,3.0,"[-0.3448  -0.40156 -0.44993 -0.49698 -0.51519 -0.54524 -0.53104 -0.54625
 -0.53059 -0.53544 -0.53458 -0.57296 -0.65439 -0.7304  -0.83441 -0.9395
 -1.0313  -1.1134  -1.2022  -1.2743  -1.3701  -1.4371  -1.4824  -1.5185
 -1.5484  -1.553   -1.5801  -1.5893 ]",0.23214095722241396
170,-1343527930495082501,3.0,"[0.78485 0.78967 0.78843 0.77057 0.76729 0.74394 0.73781 0.70351 0.70462
 0.66434 0.6619  0.66903 0.63731 0.61679 0.63322 0.57991 0.56743 0.54002
 0.51774 0.48266 0.47544 0.44408 0.39468 0.34717 0.30811 0.253   0.17474
 0.11623]",0.22849906601122136
170,-77377730454519461,3.0,"[0.75595 0.34691 0.3297  0.30211 0.42292 0.61064 0.77801 0.81253 0.87867
 0.98836 1.0032  0.9884  0.99262 0.99769 1.0052  0.97305 0.98033 0.98363
 0.97771 0.95465 0.96208 0.94235 0.93279 0.91299 0.91225 0.89453 0.87512
 0.86323 0.84948 0.86003 0.83282 0.79954 0.81264 0.79402 0.78137 0.78951
 0.78701 0.78408 0.78816 0.7745  0.78253 0.77934 0.79264 0.80085 0.79873
 0.79414 0.81706 0.83015 0.83037]",0.2264814174531257
170,2042528436174485857,4.0,"[-0.22134  -0.22922  -0.11299  -0.17586  -0.1984   -0.20867  -0.26082
 -0.31456  -0.29684  -0.31922  -0.41622  -0.38806  -0.4118   -0.45481
 -0.39494  -0.43113  -0.55199  -0.53701  -0.58002  -0.60555  -0.61457
 -0.67265  -0.69786  -0.74814  -0.74     -0.80661  -0.85183  -0.86801
 -0.88446  -0.83901  -0.97031  -0.93442  -0.9814   -1.0503   -0.84967
 -0.83561  -0.91712  -0.89776  -0.8957   -0.90488  -0.90452  -0.75911
 -0.75635  -0.7602   -0.60017  -0.53983  -0.43803  -0.41939  -0.42147
 -0.36325  -0.3165   -0.19587  -0.15864  -0.078189 -0.051712 -0.022757]",0.30234964685969384
170,4925723307672444395,4.0,"[0.44691  0.45795  0.3488   0.4495   0.48829  0.45365  0.51162  0.45629
 0.37771  0.36212  0.34745  0.41931  0.47779  0.40865  0.3877   0.37553
 0.2871   0.28431  0.31379  0.26691  0.22667  0.19148  0.21981  0.30755
 0.2361   0.16013  0.21514  0.21981  0.18558  0.15361  0.12263  0.11122
 0.090821 0.073101 0.060884 0.043457 0.091671 0.17681  0.13957  0.059995
 0.11417  0.18802  0.17681  0.18806  0.23255  0.24954  0.26789  0.24131
 0.2388   0.37332  0.40005  0.31549  0.3703   0.46425  0.5193   0.55024 ]",0.30105526191782794
170,-393601981402582742,4.0,"[0.3488   0.4495   0.48829  0.45365  0.51162  0.45629  0.37771  0.36212
 0.34745  0.41931  0.47779  0.40865  0.3877   0.37553  0.2871   0.28431
 0.31379  0.26691  0.22667  0.19148  0.21981  0.30755  0.2361   0.16013
 0.21514  0.21981  0.18558  0.15361  0.12263  0.11122  0.090821 0.073101
 0.060884 0.043457 0.091671 0.17681  0.13957  0.059995 0.11417  0.18802
 0.17681  0.18806  0.23255  0.24954  0.26789  0.24131  0.2388   0.37332
 0.40005  0.31549  0.3703   0.46425  0.5193   0.55024  0.47515  0.4348
 0.50969  0.53086  0.57909  0.63485  0.62828  0.63844  0.57647 ]",0.3001299273005226
170,-4217037597788086488,4.0,"[-0.11299  -0.17586  -0.1984   -0.20867  -0.26082  -0.31456  -0.29684
 -0.31922  -0.41622  -0.38806  -0.4118   -0.45481  -0.39494  -0.43113
 -0.55199  -0.53701  -0.58002  -0.60555  -0.61457  -0.67265  -0.69786
 -0.74814  -0.74     -0.80661  -0.85183  -0.86801  -0.88446  -0.83901
 -0.97031  -0.93442  -0.9814   -1.0503   -0.84967  -0.83561  -0.91712
 -0.89776  -0.8957   -0.90488  -0.90452  -0.75911  -0.75635  -0.7602
 -0.60017  -0.53983  -0.43803  -0.41939  -0.42147  -0.36325  -0.3165
 -0.19587  -0.15864  -0.078189 -0.051712 -0.022757  0.047425  0.054317
  0.053184  0.071472  0.13562   0.12401   0.18909   0.20398   0.15293 ]",0.2814050658079529
170,3119736319766485656,4.0,"[0.37771  0.36212  0.34745  0.41931  0.47779  0.40865  0.3877   0.37553
 0.2871   0.28431  0.31379  0.26691  0.22667  0.19148  0.21981  0.30755
 0.2361   0.16013  0.21514  0.21981  0.18558  0.15361  0.12263  0.11122
 0.090821 0.073101 0.060884 0.043457 0.091671 0.17681  0.13957  0.059995
 0.11417  0.18802  0.17681  0.18806  0.23255  0.24954  0.26789  0.24131
 0.2388   0.37332  0.40005  0.31549  0.3703   0.46425  0.5193   0.55024
 0.47515 ]",0.2715819919905158
170,-8011593827859491070,4.0,"[0.3488   0.4495   0.48829  0.45365  0.51162  0.45629  0.37771  0.36212
 0.34745  0.41931  0.47779  0.40865  0.3877   0.37553  0.2871   0.28431
 0.31379  0.26691  0.22667  0.19148  0.21981  0.30755  0.2361   0.16013
 0.21514  0.21981  0.18558  0.15361  0.12263  0.11122  0.090821 0.073101
 0.060884 0.043457 0.091671 0.17681  0.13957  0.059995 0.11417  0.18802
 0.17681  0.18806 ]",0.26590821696616285
170,-2780411099879832494,4.0,"[-0.11299 -0.17586 -0.1984  -0.20867 -0.26082 -0.31456 -0.29684 -0.31922
 -0.41622 -0.38806 -0.4118  -0.45481 -0.39494 -0.43113 -0.55199 -0.53701
 -0.58002 -0.60555 -0.61457 -0.67265 -0.69786 -0.74814 -0.74    -0.80661
 -0.85183 -0.86801 -0.88446 -0.83901 -0.97031 -0.93442 -0.9814  -1.0503
 -0.84967 -0.83561 -0.91712 -0.89776 -0.8957  -0.90488 -0.90452 -0.75911
 -0.75635 -0.7602 ]",0.25390219883406817
170,-6998948704232940950,4.0,"[-0.29684  -0.31922  -0.41622  -0.38806  -0.4118   -0.45481  -0.39494
 -0.43113  -0.55199  -0.53701  -0.58002  -0.60555  -0.61457  -0.67265
 -0.69786  -0.74814  -0.74     -0.80661  -0.85183  -0.86801  -0.88446
 -0.83901  -0.97031  -0.93442  -0.9814   -1.0503   -0.84967  -0.83561
 -0.91712  -0.89776  -0.8957   -0.90488  -0.90452  -0.75911  -0.75635
 -0.7602   -0.60017  -0.53983  -0.43803  -0.41939  -0.42147  -0.36325
 -0.3165   -0.19587  -0.15864  -0.078189 -0.051712 -0.022757  0.047425]",0.21017082760982517
170,4118840273040539646,4.0,"[0.47779  0.40865  0.3877   0.37553  0.2871   0.28431  0.31379  0.26691
 0.22667  0.19148  0.21981  0.30755  0.2361   0.16013  0.21514  0.21981
 0.18558  0.15361  0.12263  0.11122  0.090821 0.073101 0.060884 0.043457
 0.091671 0.17681  0.13957  0.059995 0.11417  0.18802  0.17681  0.18806
 0.23255  0.24954  0.26789  0.24131  0.2388   0.37332  0.40005  0.31549
 0.3703   0.46425 ]",0.20721091927198426
170,8499924683213636122,4.0,"[-0.15604    0.16669    0.0050008 -0.062559  -0.025141   0.073142
 -0.039686  -0.007199   0.010133   0.012651  -0.06684   -0.091333
 -0.11825   -0.076373  -0.10481   -0.11586   -0.22134   -0.22922
 -0.11299   -0.17586   -0.1984    -0.20867   -0.26082   -0.31456
 -0.29684   -0.31922   -0.41622   -0.38806   -0.4118    -0.45481
 -0.39494   -0.43113   -0.55199   -0.53701   -0.58002   -0.60555
 -0.61457   -0.67265   -0.69786   -0.74814   -0.74      -0.80661
 -0.85183   -0.86801   -0.88446   -0.83901   -0.97031   -0.93442
 -0.9814   ]",0.20667269396252763
170,-3439189115454271896,5.0,"[ 0.74502   0.77057   0.87525   0.91814   0.87295   0.72223   0.7345
  0.80611   0.65117   0.59949   0.75871   0.45399   0.44855   0.37079
  0.54736   0.38089   0.2808    0.12623   0.23879   0.25292   0.099845
  0.070031 -0.10276   0.17271   0.19117   0.36001   0.8237    1.0099
  1.2061    1.3228    1.7773    2.0102    2.2293    2.1132    1.796
  1.4902    1.2258    0.91537   0.4431   -0.074694 -0.69752  -0.95615
 -1.0312   -1.0896   -0.98695  -1.01     -1.062    -1.189    -1.113
 -1.1256   -1.1545   -1.1519   -1.2371   -1.1919   -1.1019   -0.94062
 -0.13677   0.26929   0.23511   0.58139   0.24547   0.29674  -0.83459 ]",0.6129990935184739
170,8868445062011201137,5.0,"[ 0.59949   0.75871   0.45399   0.44855   0.37079   0.54736   0.38089
  0.2808    0.12623   0.23879   0.25292   0.099845  0.070031 -0.10276
  0.17271   0.19117   0.36001   0.8237    1.0099    1.2061    1.3228
  1.7773    2.0102    2.2293    2.1132    1.796     1.4902    1.2258
  0.91537   0.4431   -0.074694 -0.69752  -0.95615  -1.0312   -1.0896
 -0.98695  -1.01     -1.062    -1.189    -1.113    -1.1256   -1.1545
 -1.1519   -1.2371   -1.1919   -1.1019   -0.94062  -0.13677   0.26929
  0.23511   0.58139   0.24547   0.29674  -0.83459  -0.92424  -0.62591 ]",0.5603408238945958
170,2023415608140233880,5.0,"[ 0.61095   0.62876   0.61103   0.49351   0.50018   0.52384   0.50815
  0.52183   0.4613    0.50295   0.66058   0.80933   0.96543   1.1995
  1.1884    1.4474    1.8367    2.1514    2.2266    2.0074    1.9388
  1.7964    1.5596    1.3233    1.0177    0.81166   0.5305    0.046598
 -0.17759  -0.3259   -0.26937  -0.29838  -0.34846  -0.28224  -0.26664
 -0.2317   -0.22053  -0.30562  -0.2629   -0.32782  -0.3084   -0.20527
 -0.13298  -0.10459   0.25011   1.0146    1.4716    1.111     0.61193 ]",0.5076609649018563
170,3152737374273356831,5.0,"[ 0.59949   0.75871   0.45399   0.44855   0.37079   0.54736   0.38089
  0.2808    0.12623   0.23879   0.25292   0.099845  0.070031 -0.10276
  0.17271   0.19117   0.36001   0.8237    1.0099    1.2061    1.3228
  1.7773    2.0102    2.2293    2.1132    1.796     1.4902    1.2258
  0.91537   0.4431   -0.074694 -0.69752  -0.95615  -1.0312   -1.0896
 -0.98695  -1.01     -1.062    -1.189    -1.113    -1.1256   -1.1545
 -1.1519   -1.2371   -1.1919   -1.1019   -0.94062  -0.13677   0.26929 ]",0.4898255184414206
170,1086865434999192381,5.0,"[ 0.035276   0.035606  -0.01409   -0.09609   -0.14198   -0.19497
 -0.14757   -0.20675   -0.21985   -0.084388   0.097651   0.35204
  0.45017    0.51925    0.70625    0.9699     1.1208     1.2559
  1.1981     1.2769     0.97466    0.7561     0.47834    0.22769
  0.0017075 -0.45497   -0.92745   -1.1198    -1.2576    -1.1863
 -1.3053    -1.2152    -1.3151    -1.3071    -1.2978    -1.2874
 -1.2669    -1.2969    -1.2647    -1.2822    -1.3062    -1.3338
 -1.3125    -1.0299    -0.44185   -0.17277   -0.23575   -0.15567
 -0.25852  ]",0.4562367346400193
170,-3869620356860983764,5.0,"[ 0.48581    0.44811    0.43655    0.35051    0.37161    0.44052
  0.35512    0.33444    0.34968    0.35269    0.27337    0.064863
 -0.0047627  0.050911   0.035276   0.035606  -0.01409   -0.09609
 -0.14198   -0.19497   -0.14757   -0.20675   -0.21985   -0.084388
  0.097651   0.35204    0.45017    0.51925    0.70625    0.9699
  1.1208     1.2559     1.1981     1.2769     0.97466    0.7561
  0.47834    0.22769    0.0017075 -0.45497   -0.92745   -1.1198
 -1.2576    -1.1863    -1.3053    -1.2152    -1.3151    -1.3071
 -1.2978    -1.2874    -1.2669    -1.2969    -1.2647    -1.2822
 -1.3062    -1.3338   ]",0.45594931083278334
170,-2875236783886860603,5.0,"[ 0.38089   0.2808    0.12623   0.23879   0.25292   0.099845  0.070031
 -0.10276   0.17271   0.19117   0.36001   0.8237    1.0099    1.2061
  1.3228    1.7773    2.0102    2.2293    2.1132    1.796     1.4902
  1.2258    0.91537   0.4431   -0.074694 -0.69752  -0.95615  -1.0312
 -1.0896   -0.98695  -1.01     -1.062    -1.189    -1.113    -1.1256
 -1.1545   -1.1519   -1.2371   -1.1919   -1.1019   -0.94062  -0.13677 ]",0.43901457437816643
170,-22306134305229203,5.0,"[ 0.50815   0.52183   0.4613    0.50295   0.66058   0.80933   0.96543
  1.1995    1.1884    1.4474    1.8367    2.1514    2.2266    2.0074
  1.9388    1.7964    1.5596    1.3233    1.0177    0.81166   0.5305
  0.046598 -0.17759  -0.3259   -0.26937  -0.29838  -0.34846  -0.28224
 -0.26664  -0.2317   -0.22053  -0.30562  -0.2629   -0.32782  -0.3084
 -0.20527  -0.13298  -0.10459   0.25011   1.0146    1.4716    1.111   ]",0.42953029744275106
170,2755266036264396803,5.0,"[ 0.48581    0.44811    0.43655    0.35051    0.37161    0.44052
  0.35512    0.33444    0.34968    0.35269    0.27337    0.064863
 -0.0047627  0.050911   0.035276   0.035606  -0.01409   -0.09609
 -0.14198   -0.19497   -0.14757   -0.20675   -0.21985   -0.084388
  0.097651   0.35204    0.45017    0.51925    0.70625    0.9699
  1.1208     1.2559     1.1981     1.2769     0.97466    0.7561
  0.47834    0.22769    0.0017075 -0.45497   -0.92745   -1.1198   ]",0.40288764263493654
170,3647530386283344019,5.0,"[ 0.070031 -0.10276   0.17271   0.19117   0.36001   0.8237    1.0099
  1.2061    1.3228    1.7773    2.0102    2.2293    2.1132    1.796
  1.4902    1.2258    0.91537   0.4431   -0.074694 -0.69752  -0.95615
 -1.0312   -1.0896   -0.98695  -1.01     -1.062    -1.189    -1.113
 -1.1256   -1.1545   -1.1519   -1.2371   -1.1919   -1.1019   -0.94062 ]",0.3879987740893098
175,863294155201537606,1.0,"[ 0.36795    0.37278    0.33109    0.3864     0.34362    0.30252
  0.42751    0.33791    0.39377    0.31426    0.46302    0.35811
  0.30633    0.42741    0.36589    0.45021    0.47055    0.55274
  0.92625    1.1423     1.2735     1.4464     1.5737     1.9466
  2.2667     2.1761     2.0371     1.8584     1.7444     1.547
  1.2638     0.74393    0.19274   -0.0051231 -0.0045448 -0.0044781
 -0.13646    0.041175  -0.01151    0.056577   0.046861   0.044559
  0.081305   0.015736   0.11643    0.12444    0.17418    0.3812
  1.0143   ]",0.3501150091147475
175,-2592706657845840442,1.0,"[ 0.66439  0.60376  0.58133  0.5437   0.60798  0.575    0.58186  0.4533
  0.54875  0.46008  0.40378  0.43669  0.3032   0.52221  0.42012  0.40439
  0.42607  0.323    0.38253  0.37489  0.24601  0.37031  0.33646  0.31924
  0.2874   0.44056  0.56054  0.67259  0.98308  1.251    1.2321   1.6038
  2.0192   2.3689   2.4217   2.325    2.054    1.7484   1.4691   0.95481
  0.25551 -0.25678 -0.31246 -0.46308 -0.3581  -0.36193 -0.31974 -0.42845
 -0.29101 -0.41659 -0.45404 -0.37164 -0.36892 -0.29578 -0.46945 -0.32956
 -0.23513  0.57473  1.0586   0.88663  1.2658   0.89578 -0.01588]",0.3435021513877821
175,-1537992777720823700,1.0,"[ 0.46008  0.40378  0.43669  0.3032   0.52221  0.42012  0.40439  0.42607
  0.323    0.38253  0.37489  0.24601  0.37031  0.33646  0.31924  0.2874
  0.44056  0.56054  0.67259  0.98308  1.251    1.2321   1.6038   2.0192
  2.3689   2.4217   2.325    2.054    1.7484   1.4691   0.95481  0.25551
 -0.25678 -0.31246 -0.46308 -0.3581  -0.36193 -0.31974 -0.42845 -0.29101
 -0.41659 -0.45404 -0.37164 -0.36892 -0.29578 -0.46945 -0.32956 -0.23513
  0.57473]",0.34172597678513544
175,-126629559826546119,1.0,"[ 0.42751    0.33791    0.39377    0.31426    0.46302    0.35811
  0.30633    0.42741    0.36589    0.45021    0.47055    0.55274
  0.92625    1.1423     1.2735     1.4464     1.5737     1.9466
  2.2667     2.1761     2.0371     1.8584     1.7444     1.547
  1.2638     0.74393    0.19274   -0.0051231 -0.0045448 -0.0044781
 -0.13646    0.041175  -0.01151    0.056577   0.046861   0.044559
  0.081305   0.015736   0.11643    0.12444    0.17418    0.3812   ]",0.3413092687760241
175,-7858354817535408611,1.0,"[ 0.45767    0.42686    0.42252    0.25592    0.35176    0.41193
  0.42178    0.36231    0.43731    0.45346    0.43371    0.41423
  0.4875     0.47627    0.5887     0.92192    0.99609    1.2748
  1.6255     1.5026     1.2632     1.1405     0.95372    1.0248
  1.121      0.84553    0.53038    0.22791    0.0058926 -0.018944
  0.029745  -0.026192   0.078461   0.09654    0.010432   0.064297
  0.16534    0.10752    0.15544    0.17041    0.28936    0.70013  ]",0.3350300024729927
175,-570122814766687138,1.0,"[ 0.55623    0.51095    0.59078    0.55924    0.54987    0.48123
  0.47063    0.4402     0.3898     0.36795    0.37278    0.33109
  0.3864     0.34362    0.30252    0.42751    0.33791    0.39377
  0.31426    0.46302    0.35811    0.30633    0.42741    0.36589
  0.45021    0.47055    0.55274    0.92625    1.1423     1.2735
  1.4464     1.5737     1.9466     2.2667     2.1761     2.0371
  1.8584     1.7444     1.547      1.2638     0.74393    0.19274
 -0.0051231 -0.0045448 -0.0044781 -0.13646    0.041175  -0.01151
  0.056577   0.046861   0.044559   0.081305   0.015736   0.11643
  0.12444    0.17418    0.3812     1.0143     1.5735     1.264
  1.4922     1.6146     1.3943   ]",0.33190369478283394
175,3196357102254434263,1.0,"[ 0.40439  0.42607  0.323    0.38253  0.37489  0.24601  0.37031  0.33646
  0.31924  0.2874   0.44056  0.56054  0.67259  0.98308  1.251    1.2321
  1.6038   2.0192   2.3689   2.4217   2.325    2.054    1.7484   1.4691
  0.95481  0.25551 -0.25678 -0.31246 -0.46308 -0.3581  -0.36193 -0.31974
 -0.42845 -0.29101 -0.41659 -0.45404 -0.37164 -0.36892 -0.29578 -0.46945
 -0.32956 -0.23513]",0.32198729474753585
175,7832656574371253646,1.0,"[ 0.56034   0.53284   0.41778   0.50559   0.3863    0.40434   0.464
  0.40629   0.50318   0.42061   0.465     0.42977   0.49708   0.49674
  0.57921   0.97975   1.2233    1.28      1.3952    1.6606    1.9279
  1.9147    1.8015    1.6786    1.4401    1.274     1.0705    0.66184
  0.3534    0.036911 -0.14405  -0.1815   -0.11408  -0.14381  -0.085822
 -0.10484  -0.17324  -0.21514  -0.13869  -0.13822  -0.15056  -0.11212
 -0.10944  -0.074525  0.01459   0.20798   0.78341   1.1792    1.1937  ]",0.3207543550114382
175,3230074558603608275,1.0,"[ 0.49886   0.53231   0.48577   0.45683   0.36415   0.37683   0.22851
  0.27083   0.31742   0.27701   0.25115   0.32267   0.31386   0.1987
  0.27924   0.4601    0.65541   0.9548    1.1857    1.3028    1.3617
  1.5119    1.942     2.2185    2.1502    1.9216    1.5389    1.3165
  1.01      0.66      0.081124 -0.37264  -0.65382  -0.67004  -0.69901
 -0.72759  -0.51988  -0.58415  -0.51971  -0.5861   -0.63567  -0.73378
 -0.64362  -0.45218  -0.48164  -0.54655  -0.31574   0.44011   0.89847 ]",0.3122115127534975
175,-129833549658854205,1.0,"[ 0.48417    0.54124    0.46701    0.33271    0.56803    0.37195
  0.45767    0.42686    0.42252    0.25592    0.35176    0.41193
  0.42178    0.36231    0.43731    0.45346    0.43371    0.41423
  0.4875     0.47627    0.5887     0.92192    0.99609    1.2748
  1.6255     1.5026     1.2632     1.1405     0.95372    1.0248
  1.121      0.84553    0.53038    0.22791    0.0058926 -0.018944
  0.029745  -0.026192   0.078461   0.09654    0.010432   0.064297
  0.16534    0.10752    0.15544    0.17041    0.28936    0.70013
  1.6208   ]",0.31209418049477716
175,-2971997774121738675,2.0,"[ 0.21931   0.24717   0.32794   0.43925   0.42187   0.37572   0.51166
  0.52391   0.48604   0.54633   0.45191   0.44624   0.49454   0.47584
  0.47524   0.43315   0.47668   0.56096   0.66611   0.63      0.5233
  0.58712   0.56062   0.56462   0.54771   0.53759   0.63752   0.57697
  0.62006   0.60089   0.56337   0.69021   0.64727   0.63579   0.61188
  0.61823   0.72458   0.72948   0.69978   0.6234    0.64293   0.59442
  0.41718   0.42701   0.44289   0.45045   0.54689   0.4903    0.33583
  0.28325   0.17664   0.081494  0.29419   0.42002   0.12738  -0.23548
 -0.73877  -1.3845   -2.2082   -2.838    -3.5724   -4.3329   -3.7862  ]",0.5742984410805045
175,3061158865945954670,2.0,"[ 0.20978   0.24058   0.30342   0.40691   0.40911   0.40021   0.50327
  0.52694   0.49503   0.59201   0.6589    0.62892   0.64336   0.59732
  0.56624   0.65534   0.57959   0.51979   0.61782   0.56985   0.53663
  0.63043   0.7086    0.71163   0.67107   0.69705   0.66256   0.61202
  0.63383   0.57097   0.58488   0.71952   0.77419   0.82069   0.8468
  0.74508   0.6635    0.69169   0.68832   0.63153   0.59849   0.51183
  0.41685   0.41177   0.42119   0.48796   0.52923   0.41638   0.34943
  0.28449   0.074071 -0.026031  0.074739  0.052329 -0.20267  -0.60569
 -1.0615   -1.5967   -2.3285   -2.8501   -3.6446   -4.2126   -3.7954  ]",0.5674227302645101
175,4111049705793807953,2.0,"[ 0.52397  0.48095  0.53864  0.50063  0.46435  0.54105  0.49992  0.51171
  0.51686  0.51768  0.47781  0.49316  0.54949  0.50214  0.51849  0.49813
  0.55063  0.48548  0.5141   0.57033  0.5177   0.49191  0.53324  0.5736
  0.60214  0.65623  0.66825  0.6726   0.61006  0.6515   0.71082  0.74108
  0.77293  0.76716  0.72947  0.72177  0.69505  0.76439  0.7457   0.75343
  0.78552  0.69359  0.6378   0.46602  0.41852  0.51012  0.49948  0.46786
  0.37616  0.314    0.26521  0.34446  0.58416  0.67477  0.47678 -0.16244
 -0.93503 -1.6543  -2.4342  -3.4722  -4.2808  -4.6294  -3.7942 ]",0.5622707314126033
175,5342755680982551255,2.0,"[ 0.38255   0.43432   0.50228   0.46486   0.48777   0.50818   0.51848
  0.58483   0.58301   0.60661   0.66843   0.62981   0.59085   0.63353
  0.64319   0.60182   0.62748   0.68975   0.64866   0.62257   0.67918
  0.68448   0.66976   0.66921   0.64791   0.68783   0.74642   0.74715
  0.72966   0.76205   0.79441   0.77148   0.86291   0.98926   0.90029
  0.90933   0.98163   0.94048   1.0168    0.99817   0.97465   0.85498
  0.70582   0.71021   0.66921   0.70942   0.62971   0.46404   0.38569
  0.27878   0.23578   0.35621   0.57384   0.69653   0.47578  -0.054265
 -0.6656   -1.3203   -2.0226   -2.7236   -3.4205   -3.7437   -2.9587  ]",0.5614728515794719
175,-3915139049029445865,2.0,"[ 0.67202    0.62691    0.62784    0.69671    0.70888    0.62609
  0.57606    0.62016    0.67202    0.67614    0.66872    0.67706
  0.69045    0.67136    0.62061    0.63162    0.69045    0.67564
  0.61422    0.60209    0.63516    0.6569     0.64192    0.63726
  0.63516    0.60782    0.58182    0.5128     0.41403    0.38188
